Nov. 18, 2020   13:49:08
Cyclic Voltammetry
File: c:\documents and settings\administrator\×ÀÃæ\wyz\empty05.txt
Data Source:  Experiment
Instrument Model:  CHI600B
Header: 
Note: 

Init E (V) = 0.65
High E (V) = 1.15
Low E (V) = -0.28
Init P/N = P
Scan Rate (V/s) = 0.5
Segment = 10
Sample Interval (V) = 0.005
Quiet Time (sec) = 2
Sensitivity (A/V) = 1e-5

Segment 1:

Segment 2:
Ep = 0.400V
ip = 6.567e-6A
Ah = 1.243e-6C

Segment 3:

Segment 4:
Ep = 0.400V
ip = 6.978e-6A
Ah = 1.355e-6C

Ep = -0.250V
ip = 5.177e-6A
Ah = 6.080e-7C

Segment 5:

Segment 6:
Ep = 0.400V
ip = 7.234e-6A
Ah = 1.408e-6C

Ep = -0.240V
ip = 6.005e-6A
Ah = 6.497e-7C

Segment 7:

Segment 8:
Ep = 0.400V
ip = 7.437e-6A
Ah = 1.457e-6C

Ep = -0.240V
ip = 6.250e-6A
Ah = 6.925e-7C

Segment 9:

Segment 10:
Ep = 0.400V
ip = 7.666e-6A
Ah = 1.492e-6C

Ep = -0.240V
ip = 5.954e-6A
Ah = 6.454e-7C

Potential/V, Current/A, Charge/C

Segment 1:
0.655, -1.261e-6, -1.261e-8
0.660, -1.347e-6, -2.609e-8
0.665, -1.552e-6, -4.160e-8
0.670, -1.625e-6, -5.785e-8
0.675, -1.859e-6, -7.644e-8
0.680, -1.944e-6, -9.588e-8
0.685, -2.197e-6, -1.179e-7
0.690, -2.320e-6, -1.411e-7
0.695, -2.592e-6, -1.670e-7
0.700, -2.719e-6, -1.942e-7
0.705, -3.012e-6, -2.243e-7
0.710, -3.154e-6, -2.558e-7
0.715, -3.457e-6, -2.904e-7
0.720, -3.589e-6, -3.263e-7
0.725, -3.882e-6, -3.651e-7
0.730, -4.000e-6, -4.051e-7
0.735, -4.288e-6, -4.480e-7
0.740, -4.394e-6, -4.919e-7
0.745, -4.657e-6, -5.385e-7
0.750, -4.750e-6, -5.860e-7
0.755, -5.001e-6, -6.360e-7
0.760, -5.066e-6, -6.866e-7
0.765, -5.275e-6, -7.394e-7
0.770, -5.324e-6, -7.926e-7
0.775, -5.516e-6, -8.478e-7
0.780, -5.536e-6, -9.032e-7
0.785, -5.709e-6, -9.603e-7
0.790, -5.723e-6, -1.017e-6
0.795, -5.876e-6, -1.076e-6
0.800, -5.879e-6, -1.135e-6
0.805, -6.008e-6, -1.195e-6
0.810, -5.997e-6, -1.255e-6
0.815, -6.137e-6, -1.316e-6
0.820, -6.098e-6, -1.377e-6
0.825, -6.234e-6, -1.440e-6
0.830, -6.208e-6, -1.502e-6
0.835, -6.323e-6, -1.565e-6
0.840, -6.308e-6, -1.628e-6
0.845, -6.439e-6, -1.693e-6
0.850, -6.408e-6, -1.757e-6
0.855, -6.526e-6, -1.822e-6
0.860, -6.503e-6, -1.887e-6
0.865, -6.612e-6, -1.953e-6
0.870, -6.592e-6, -2.019e-6
0.875, -6.703e-6, -2.086e-6
0.880, -6.682e-6, -2.153e-6
0.885, -6.788e-6, -2.221e-6
0.890, -6.767e-6, -2.288e-6
0.895, -6.893e-6, -2.357e-6
0.900, -6.882e-6, -2.426e-6
0.905, -6.991e-6, -2.496e-6
0.910, -6.983e-6, -2.566e-6
0.915, -7.091e-6, -2.637e-6
0.920, -7.089e-6, -2.708e-6
0.925, -7.198e-6, -2.780e-6
0.930, -7.191e-6, -2.852e-6
0.935, -7.306e-6, -2.925e-6
0.940, -7.295e-6, -2.998e-6
0.945, -7.418e-6, -3.072e-6
0.950, -7.414e-6, -3.146e-6
0.955, -7.524e-6, -3.221e-6
0.960, -7.520e-6, -3.296e-6
0.965, -7.634e-6, -3.373e-6
0.970, -7.632e-6, -3.449e-6
0.975, -7.749e-6, -3.526e-6
0.980, -7.749e-6, -3.604e-6
0.985, -7.861e-6, -3.683e-6
0.990, -7.857e-6, -3.761e-6
0.995, -7.976e-6, -3.841e-6
1.000, -7.984e-6, -3.921e-6
1.005, -8.104e-6, -4.002e-6
1.010, -8.100e-6, -4.083e-6
1.015, -8.207e-6, -4.165e-6
1.020, -8.207e-6, -4.247e-6
1.025, -8.307e-6, -4.330e-6
1.030, -8.308e-6, -4.413e-6
1.035, -8.421e-6, -4.497e-6
1.040, -8.420e-6, -4.581e-6
1.045, -8.531e-6, -4.667e-6
1.050, -8.537e-6, -4.752e-6
1.055, -8.640e-6, -4.839e-6
1.060, -8.630e-6, -4.925e-6
1.065, -8.725e-6, -5.012e-6
1.070, -8.721e-6, -5.099e-6
1.075, -8.829e-6, -5.188e-6
1.080, -8.827e-6, -5.276e-6
1.085, -8.935e-6, -5.365e-6
1.090, -8.929e-6, -5.455e-6
1.095, -9.023e-6, -5.545e-6
1.100, -9.023e-6, -5.635e-6
1.105, -9.104e-6, -5.726e-6
1.110, -9.101e-6, -5.817e-6
1.115, -9.204e-6, -5.909e-6
1.120, -9.198e-6, -6.001e-6
1.125, -9.303e-6, -6.094e-6
1.130, -9.296e-6, -6.187e-6
1.135, -9.386e-6, -6.281e-6
1.140, -9.381e-6, -6.375e-6
1.145, -9.474e-6, -6.469e-6
1.150, -8.549e-6, -6.555e-6

Segment 2:
1.145, -6.824e-6, -6.623e-6
1.140, -5.634e-6, -6.680e-6
1.135, -4.800e-6, -6.728e-6
1.130, -4.044e-6, -6.768e-6
1.125, -3.521e-6, -6.803e-6
1.120, -3.001e-6, -6.833e-6
1.115, -2.662e-6, -6.860e-6
1.110, -2.278e-6, -6.883e-6
1.105, -2.037e-6, -6.903e-6
1.100, -1.741e-6, -6.920e-6
1.095, -1.568e-6, -6.936e-6
1.090, -1.331e-6, -6.949e-6
1.085, -1.219e-6, -6.962e-6
1.080, -1.027e-6, -6.972e-6
1.075, -9.508e-7, -6.981e-6
1.070, -7.830e-7, -6.989e-6
1.065, -7.306e-7, -6.996e-6
1.060, -5.868e-7, -7.002e-6
1.055, -5.520e-7, -7.008e-6
1.050, -4.290e-7, -7.012e-6
1.045, -4.125e-7, -7.016e-6
1.040, -2.946e-7, -7.019e-6
1.035, -2.918e-7, -7.022e-6
1.030, -1.818e-7, -7.024e-6
1.025, -1.849e-7, -7.026e-6
1.020, -8.619e-8, -7.027e-6
1.015, -9.505e-8, -7.028e-6
1.010, 4.151e-9, -7.028e-6
1.005, -6.100e-9, -7.028e-6
1.000, 8.647e-8, -7.027e-6
0.995, 5.854e-8, -7.026e-6
0.990, 1.519e-7, -7.025e-6
0.985, 1.249e-7, -7.023e-6
0.980, 2.063e-7, -7.021e-6
0.975, 1.842e-7, -7.020e-6
0.970, 2.719e-7, -7.017e-6
0.965, 2.394e-7, -7.014e-6
0.960, 3.041e-7, -7.011e-6
0.955, 2.891e-7, -7.008e-6
0.950, 3.583e-7, -7.005e-6
0.945, 3.272e-7, -7.002e-6
0.940, 4.015e-7, -6.998e-6
0.935, 3.672e-7, -6.994e-6
0.930, 4.418e-7, -6.990e-6
0.925, 4.054e-7, -6.985e-6
0.920, 4.856e-7, -6.981e-6
0.915, 4.466e-7, -6.976e-6
0.910, 5.197e-7, -6.971e-6
0.905, 4.901e-7, -6.966e-6
0.900, 5.631e-7, -6.960e-6
0.895, 5.289e-7, -6.955e-6
0.890, 6.008e-7, -6.949e-6
0.885, 5.646e-7, -6.943e-6
0.880, 6.446e-7, -6.937e-6
0.875, 5.997e-7, -6.931e-6
0.870, 6.804e-7, -6.924e-6
0.865, 6.473e-7, -6.918e-6
0.860, 7.196e-7, -6.911e-6
0.855, 6.835e-7, -6.904e-6
0.850, 7.595e-7, -6.896e-6
0.845, 7.275e-7, -6.889e-6
0.840, 8.019e-7, -6.881e-6
0.835, 7.666e-7, -6.873e-6
0.830, 8.461e-7, -6.865e-6
0.825, 8.097e-7, -6.857e-6
0.820, 8.785e-7, -6.848e-6
0.815, 8.531e-7, -6.839e-6
0.810, 9.343e-7, -6.830e-6
0.805, 8.956e-7, -6.821e-6
0.800, 9.853e-7, -6.811e-6
0.795, 9.515e-7, -6.802e-6
0.790, 1.054e-6, -6.791e-6
0.785, 1.007e-6, -6.781e-6
0.780, 1.087e-6, -6.770e-6
0.775, 1.072e-6, -6.759e-6
0.770, 1.149e-6, -6.748e-6
0.765, 1.119e-6, -6.737e-6
0.760, 1.209e-6, -6.725e-6
0.755, 1.176e-6, -6.713e-6
0.750, 1.274e-6, -6.700e-6
0.745, 1.249e-6, -6.688e-6
0.740, 1.343e-6, -6.674e-6
0.735, 1.321e-6, -6.661e-6
0.730, 1.434e-6, -6.647e-6
0.725, 1.400e-6, -6.633e-6
0.720, 1.515e-6, -6.618e-6
0.715, 1.502e-6, -6.603e-6
0.710, 1.602e-6, -6.587e-6
0.705, 1.574e-6, -6.571e-6
0.700, 1.690e-6, -6.554e-6
0.695, 1.672e-6, -6.537e-6
0.690, 1.787e-6, -6.519e-6
0.685, 1.773e-6, -6.502e-6
0.680, 1.890e-6, -6.483e-6
0.675, 1.886e-6, -6.464e-6
0.670, 2.006e-6, -6.444e-6
0.665, 2.000e-6, -6.424e-6
0.660, 2.127e-6, -6.402e-6
0.655, 2.129e-6, -6.381e-6
0.650, 2.257e-6, -6.359e-6
0.645, 2.268e-6, -6.336e-6
0.640, 2.409e-6, -6.312e-6
0.635, 2.430e-6, -6.288e-6
0.630, 2.574e-6, -6.262e-6
0.625, 2.593e-6, -6.236e-6
0.620, 2.739e-6, -6.208e-6
0.615, 2.775e-6, -6.181e-6
0.610, 2.934e-6, -6.151e-6
0.605, 2.982e-6, -6.122e-6
0.600, 3.146e-6, -6.090e-6
0.595, 3.199e-6, -6.058e-6
0.590, 3.396e-6, -6.024e-6
0.585, 3.444e-6, -5.990e-6
0.580, 3.643e-6, -5.953e-6
0.575, 3.719e-6, -5.916e-6
0.570, 3.928e-6, -5.877e-6
0.565, 4.019e-6, -5.837e-6
0.560, 4.241e-6, -5.794e-6
0.555, 4.355e-6, -5.751e-6
0.550, 4.612e-6, -5.705e-6
0.545, 4.737e-6, -5.657e-6
0.540, 4.996e-6, -5.607e-6
0.535, 5.149e-6, -5.556e-6
0.530, 5.430e-6, -5.501e-6
0.525, 5.600e-6, -5.445e-6
0.520, 5.904e-6, -5.386e-6
0.515, 6.105e-6, -5.325e-6
0.510, 6.443e-6, -5.261e-6
0.505, 6.663e-6, -5.194e-6
0.500, 7.013e-6, -5.124e-6
0.495, 7.257e-6, -5.052e-6
0.490, 7.628e-6, -4.975e-6
0.485, 7.909e-6, -4.896e-6
0.480, 8.296e-6, -4.813e-6
0.475, 8.579e-6, -4.727e-6
0.470, 8.980e-6, -4.638e-6
0.465, 9.273e-6, -4.545e-6
0.460, 9.675e-6, -4.448e-6
0.455, 9.968e-6, -4.348e-6
0.450, 1.037e-5, -4.245e-6
0.445, 1.064e-5, -4.138e-6
0.440, 1.103e-5, -4.028e-6
0.435, 1.129e-5, -3.915e-6
0.430, 1.162e-5, -3.799e-6
0.425, 1.181e-5, -3.681e-6
0.420, 1.208e-5, -3.560e-6
0.415, 1.220e-5, -3.438e-6
0.410, 1.236e-5, -3.314e-6
0.405, 1.240e-5, -3.190e-6
0.400, 1.250e-5, -3.065e-6
0.395, 1.244e-5, -2.941e-6
0.390, 1.243e-5, -2.817e-6
0.385, 1.226e-5, -2.694e-6
0.380, 1.216e-5, -2.573e-6
0.375, 1.189e-5, -2.454e-6
0.370, 1.169e-5, -2.337e-6
0.365, 1.135e-5, -2.223e-6
0.360, 1.107e-5, -2.113e-6
0.355, 1.065e-5, -2.006e-6
0.350, 1.033e-5, -1.903e-6
0.345, 9.888e-6, -1.804e-6
0.340, 9.544e-6, -1.708e-6
0.335, 9.090e-6, -1.618e-6
0.330, 8.739e-6, -1.530e-6
0.325, 8.291e-6, -1.447e-6
0.320, 7.949e-6, -1.368e-6
0.315, 7.498e-6, -1.293e-6
0.310, 7.176e-6, -1.221e-6
0.305, 6.785e-6, -1.153e-6
0.300, 6.491e-6, -1.088e-6
0.295, 6.116e-6, -1.027e-6
0.290, 5.849e-6, -9.686e-7
0.285, 5.514e-6, -9.135e-7
0.280, 5.290e-6, -8.606e-7
0.275, 4.990e-6, -8.107e-7
0.270, 4.792e-6, -7.628e-7
0.265, 4.509e-6, -7.177e-7
0.260, 4.336e-6, -6.743e-7
0.255, 4.093e-6, -6.334e-7
0.250, 3.950e-6, -5.939e-7
0.245, 3.734e-6, -5.566e-7
0.240, 3.616e-6, -5.204e-7
0.235, 3.419e-6, -4.862e-7
0.230, 3.320e-6, -4.530e-7
0.225, 3.137e-6, -4.216e-7
0.220, 3.051e-6, -3.911e-7
0.215, 2.883e-6, -3.623e-7
0.210, 2.811e-6, -3.342e-7
0.205, 2.667e-6, -3.075e-7
0.200, 2.611e-6, -2.814e-7
0.195, 2.465e-6, -2.568e-7
0.190, 2.413e-6, -2.326e-7
0.185, 2.279e-6, -2.098e-7
0.180, 2.243e-6, -1.874e-7
0.175, 2.119e-6, -1.662e-7
0.170, 2.083e-6, -1.454e-7
0.165, 1.971e-6, -1.257e-7
0.160, 1.946e-6, -1.062e-7
0.155, 1.842e-6, -8.779e-8
0.150, 1.830e-6, -6.949e-8
0.145, 1.723e-6, -5.226e-8
0.140, 1.712e-6, -3.514e-8
0.135, 1.626e-6, -1.887e-8
0.130, 1.625e-6, -2.624e-9
0.125, 1.537e-6, 1.275e-8
0.120, 1.543e-6, 2.818e-8
0.115, 1.461e-6, 4.278e-8
0.110, 1.469e-6, 5.747e-8
0.105, 1.375e-6, 7.122e-8
0.100, 1.405e-6, 8.527e-8
0.095, 1.324e-6, 9.851e-8
0.090, 1.355e-6, 1.121e-7
0.085, 1.288e-6, 1.249e-7
0.080, 1.320e-6, 1.381e-7
0.075, 1.265e-6, 1.508e-7
0.070, 1.311e-6, 1.639e-7
0.065, 1.259e-6, 1.765e-7
0.060, 1.313e-6, 1.896e-7
0.055, 1.268e-6, 2.023e-7
0.050, 1.333e-6, 2.156e-7
0.045, 1.294e-6, 2.286e-7
0.040, 1.385e-6, 2.424e-7
0.035, 1.349e-6, 2.559e-7
0.030, 1.477e-6, 2.707e-7
0.025, 1.463e-6, 2.853e-7
0.020, 1.586e-6, 3.012e-7
0.015, 1.571e-6, 3.169e-7
0.010, 1.749e-6, 3.344e-7
0.005, 1.741e-6, 3.518e-7
0.000, 1.944e-6, 3.712e-7
-0.005, 1.974e-6, 3.910e-7
-0.010, 2.253e-6, 4.135e-7
-0.015, 2.294e-6, 4.364e-7
-0.020, 2.639e-6, 4.628e-7
-0.025, 2.729e-6, 4.901e-7
-0.030, 3.148e-6, 5.216e-7
-0.035, 3.253e-6, 5.541e-7
-0.040, 3.760e-6, 5.917e-7
-0.045, 3.851e-6, 6.302e-7
-0.050, 4.357e-6, 6.738e-7
-0.055, 4.412e-6, 7.179e-7
-0.060, 4.910e-6, 7.670e-7
-0.065, 4.863e-6, 8.157e-7
-0.070, 5.307e-6, 8.687e-7
-0.075, 5.212e-6, 9.208e-7
-0.080, 5.592e-6, 9.768e-7
-0.085, 5.434e-6, 1.031e-6
-0.090, 5.791e-6, 1.089e-6
-0.095, 5.618e-6, 1.145e-6
-0.100, 5.962e-6, 1.205e-6
-0.105, 5.761e-6, 1.262e-6
-0.110, 6.082e-6, 1.323e-6
-0.115, 5.838e-6, 1.382e-6
-0.120, 6.173e-6, 1.443e-6
-0.125, 5.930e-6, 1.503e-6
-0.130, 6.285e-6, 1.566e-6
-0.135, 6.021e-6, 1.626e-6
-0.140, 6.396e-6, 1.690e-6
-0.145, 6.213e-6, 1.752e-6
-0.150, 6.643e-6, 1.818e-6
-0.155, 6.512e-6, 1.883e-6
-0.160, 7.026e-6, 1.954e-6
-0.165, 6.956e-6, 2.023e-6
-0.170, 7.578e-6, 2.099e-6
-0.175, 7.592e-6, 2.175e-6
-0.180, 8.333e-6, 2.258e-6
-0.185, 8.367e-6, 2.342e-6
-0.190, 9.095e-6, 2.433e-6
-0.195, 9.124e-6, 2.524e-6
-0.200, 9.841e-6, 2.622e-6
-0.205, 9.854e-6, 2.721e-6
-0.210, 1.051e-5, 2.826e-6
-0.215, 1.048e-5, 2.931e-6
-0.220, 1.111e-5, 3.042e-6
-0.225, 1.102e-5, 3.152e-6
-0.230, 1.158e-5, 3.268e-6
-0.235, 1.137e-5, 3.382e-6
-0.240, 1.185e-5, 3.500e-6
-0.245, 1.156e-5, 3.616e-6
-0.250, 1.199e-5, 3.736e-6
-0.255, 1.166e-5, 3.852e-6
-0.260, 1.204e-5, 3.973e-6
-0.265, 1.173e-5, 4.090e-6
-0.270, 1.213e-5, 4.211e-6
-0.275, 1.185e-5, 4.330e-6
-0.280, 8.113e-6, 4.411e-6

Segment 3:
-0.275, -5.790e-7, 4.405e-6
-0.270, -2.565e-6, 4.379e-6
-0.265, -4.201e-6, 4.337e-6
-0.260, -4.735e-6, 4.290e-6
-0.255, -5.721e-6, 4.233e-6
-0.250, -5.903e-6, 4.174e-6
-0.245, -6.682e-6, 4.107e-6
-0.240, -6.665e-6, 4.040e-6
-0.235, -7.329e-6, 3.967e-6
-0.230, -7.223e-6, 3.895e-6
-0.225, -7.791e-6, 3.817e-6
-0.220, -7.565e-6, 3.741e-6
-0.215, -8.023e-6, 3.661e-6
-0.210, -7.690e-6, 3.584e-6
-0.205, -8.099e-6, 3.503e-6
-0.200, -7.658e-6, 3.427e-6
-0.195, -8.025e-6, 3.346e-6
-0.190, -7.557e-6, 3.271e-6
-0.185, -7.842e-6, 3.192e-6
-0.180, -7.372e-6, 3.119e-6
-0.175, -7.518e-6, 3.043e-6
-0.170, -6.945e-6, 2.974e-6
-0.165, -7.016e-6, 2.904e-6
-0.160, -6.423e-6, 2.840e-6
-0.155, -6.498e-6, 2.775e-6
-0.150, -5.960e-6, 2.715e-6
-0.145, -6.085e-6, 2.654e-6
-0.140, -5.625e-6, 2.598e-6
-0.135, -5.844e-6, 2.540e-6
-0.130, -5.479e-6, 2.485e-6
-0.125, -5.737e-6, 2.427e-6
-0.120, -5.420e-6, 2.373e-6
-0.115, -5.706e-6, 2.316e-6
-0.110, -5.441e-6, 2.262e-6
-0.105, -5.776e-6, 2.204e-6
-0.100, -5.527e-6, 2.149e-6
-0.095, -5.886e-6, 2.090e-6
-0.090, -5.627e-6, 2.034e-6
-0.085, -6.010e-6, 1.973e-6
-0.080, -5.787e-6, 1.916e-6
-0.075, -6.182e-6, 1.854e-6
-0.070, -5.926e-6, 1.794e-6
-0.065, -6.322e-6, 1.731e-6
-0.060, -6.056e-6, 1.671e-6
-0.055, -6.363e-6, 1.607e-6
-0.050, -5.985e-6, 1.547e-6
-0.045, -6.152e-6, 1.486e-6
-0.040, -5.607e-6, 1.430e-6
-0.035, -5.520e-6, 1.374e-6
-0.030, -4.837e-6, 1.326e-6
-0.025, -4.630e-6, 1.280e-6
-0.020, -3.932e-6, 1.240e-6
-0.015, -3.724e-6, 1.203e-6
-0.010, -3.161e-6, 1.172e-6
-0.005, -3.021e-6, 1.141e-6
-0.000, -2.564e-6, 1.116e-6
0.005, -2.503e-6, 1.091e-6
0.010, -2.167e-6, 1.069e-6
0.015, -2.117e-6, 1.048e-6
0.020, -1.861e-6, 1.029e-6
0.025, -1.839e-6, 1.011e-6
0.030, -1.603e-6, 9.948e-7
0.035, -1.591e-6, 9.789e-7
0.040, -1.407e-6, 9.649e-7
0.045, -1.412e-6, 9.507e-7
0.050, -1.257e-6, 9.382e-7
0.055, -1.264e-6, 9.255e-7
0.060, -1.140e-6, 9.141e-7
0.065, -1.152e-6, 9.026e-7
0.070, -1.042e-6, 8.922e-7
0.075, -1.069e-6, 8.815e-7
0.080, -9.755e-7, 8.717e-7
0.085, -9.993e-7, 8.618e-7
0.090, -9.169e-7, 8.526e-7
0.095, -9.463e-7, 8.431e-7
0.100, -8.812e-7, 8.343e-7
0.105, -9.133e-7, 8.252e-7
0.110, -8.495e-7, 8.167e-7
0.115, -8.823e-7, 8.079e-7
0.120, -8.328e-7, 7.995e-7
0.125, -8.752e-7, 7.908e-7
0.130, -8.220e-7, 7.826e-7
0.135, -8.615e-7, 7.739e-7
0.140, -8.056e-7, 7.659e-7
0.145, -8.455e-7, 7.574e-7
0.150, -7.993e-7, 7.494e-7
0.155, -8.398e-7, 7.410e-7
0.160, -7.951e-7, 7.331e-7
0.165, -8.358e-7, 7.247e-7
0.170, -7.932e-7, 7.168e-7
0.175, -8.366e-7, 7.084e-7
0.180, -7.937e-7, 7.005e-7
0.185, -8.355e-7, 6.921e-7
0.190, -7.918e-7, 6.842e-7
0.195, -8.358e-7, 6.759e-7
0.200, -7.913e-7, 6.680e-7
0.205, -8.380e-7, 6.596e-7
0.210, -7.917e-7, 6.517e-7
0.215, -8.377e-7, 6.433e-7
0.220, -7.930e-7, 6.353e-7
0.225, -8.380e-7, 6.270e-7
0.230, -7.997e-7, 6.190e-7
0.235, -8.388e-7, 6.106e-7
0.240, -7.983e-7, 6.026e-7
0.245, -8.440e-7, 5.942e-7
0.250, -8.043e-7, 5.861e-7
0.255, -8.466e-7, 5.777e-7
0.260, -8.086e-7, 5.696e-7
0.265, -8.560e-7, 5.610e-7
0.270, -8.139e-7, 5.529e-7
0.275, -8.622e-7, 5.442e-7
0.280, -8.213e-7, 5.360e-7
0.285, -8.696e-7, 5.273e-7
0.290, -8.298e-7, 5.190e-7
0.295, -8.748e-7, 5.103e-7
0.300, -8.331e-7, 5.020e-7
0.305, -8.804e-7, 4.932e-7
0.310, -8.371e-7, 4.848e-7
0.315, -8.836e-7, 4.760e-7
0.320, -8.456e-7, 4.675e-7
0.325, -8.915e-7, 4.586e-7
0.330, -8.579e-7, 4.500e-7
0.335, -9.107e-7, 4.409e-7
0.340, -8.741e-7, 4.322e-7
0.345, -9.214e-7, 4.229e-7
0.350, -8.842e-7, 4.141e-7
0.355, -9.388e-7, 4.047e-7
0.360, -8.968e-7, 3.957e-7
0.365, -9.698e-7, 3.860e-7
0.370, -9.251e-7, 3.768e-7
0.375, -9.867e-7, 3.669e-7
0.380, -9.496e-7, 3.574e-7
0.385, -1.026e-6, 3.472e-7
0.390, -9.825e-7, 3.373e-7
0.395, -1.052e-6, 3.268e-7
0.400, -1.023e-6, 3.166e-7
0.405, -1.095e-6, 3.057e-7
0.410, -1.047e-6, 2.952e-7
0.415, -1.139e-6, 2.838e-7
0.420, -1.116e-6, 2.726e-7
0.425, -1.195e-6, 2.607e-7
0.430, -1.164e-6, 2.490e-7
0.435, -1.261e-6, 2.364e-7
0.440, -1.231e-6, 2.241e-7
0.445, -1.332e-6, 2.108e-7
0.450, -1.303e-6, 1.978e-7
0.455, -1.419e-6, 1.836e-7
0.460, -1.390e-6, 1.697e-7
0.465, -1.519e-6, 1.545e-7
0.470, -1.502e-6, 1.394e-7
0.475, -1.637e-6, 1.231e-7
0.480, -1.630e-6, 1.068e-7
0.485, -1.806e-6, 8.872e-8
0.490, -1.809e-6, 7.063e-8
0.495, -1.984e-6, 5.079e-8
0.500, -2.011e-6, 3.068e-8
0.505, -2.222e-6, 8.455e-9
0.510, -2.271e-6, -1.426e-8
0.515, -2.506e-6, -3.932e-8
0.520, -2.573e-6, -6.506e-8
0.525, -2.839e-6, -9.344e-8
0.530, -2.913e-6, -1.226e-7
0.535, -3.195e-6, -1.545e-7
0.540, -3.273e-6, -1.872e-7
0.545, -3.559e-6, -2.228e-7
0.550, -3.609e-6, -2.589e-7
0.555, -3.890e-6, -2.978e-7
0.560, -3.921e-6, -3.370e-7
0.565, -4.180e-6, -3.788e-7
0.570, -4.203e-6, -4.209e-7
0.575, -4.442e-6, -4.653e-7
0.580, -4.457e-6, -5.098e-7
0.585, -4.706e-6, -5.569e-7
0.590, -4.712e-6, -6.040e-7
0.595, -4.969e-6, -6.537e-7
0.600, -4.965e-6, -7.034e-7
0.605, -5.206e-6, -7.554e-7
0.610, -5.192e-6, -8.073e-7
0.615, -5.444e-6, -8.618e-7
0.620, -5.420e-6, -9.160e-7
0.625, -5.642e-6, -9.724e-7
0.630, -5.589e-6, -1.028e-6
0.635, -5.822e-6, -1.087e-6
0.640, -5.787e-6, -1.144e-6
0.645, -5.971e-6, -1.204e-6
0.650, -5.911e-6, -1.263e-6
0.655, -6.083e-6, -1.324e-6
0.660, -6.009e-6, -1.384e-6
0.665, -6.180e-6, -1.446e-6
0.670, -6.105e-6, -1.507e-6
0.675, -6.267e-6, -1.570e-6
0.680, -6.183e-6, -1.631e-6
0.685, -6.335e-6, -1.695e-6
0.690, -6.243e-6, -1.757e-6
0.695, -6.392e-6, -1.821e-6
0.700, -6.291e-6, -1.884e-6
0.705, -6.444e-6, -1.949e-6
0.710, -6.332e-6, -2.012e-6
0.715, -6.478e-6, -2.077e-6
0.720, -6.365e-6, -2.140e-6
0.725, -6.514e-6, -2.205e-6
0.730, -6.406e-6, -2.269e-6
0.735, -6.550e-6, -2.335e-6
0.740, -6.444e-6, -2.399e-6
0.745, -6.576e-6, -2.465e-6
0.750, -6.482e-6, -2.530e-6
0.755, -6.591e-6, -2.596e-6
0.760, -6.492e-6, -2.661e-6
0.765, -6.607e-6, -2.727e-6
0.770, -6.498e-6, -2.792e-6
0.775, -6.607e-6, -2.858e-6
0.780, -6.500e-6, -2.923e-6
0.785, -6.610e-6, -2.989e-6
0.790, -6.509e-6, -3.054e-6
0.795, -6.608e-6, -3.120e-6
0.800, -6.506e-6, -3.185e-6
0.805, -6.603e-6, -3.251e-6
0.810, -6.514e-6, -3.316e-6
0.815, -6.608e-6, -3.383e-6
0.820, -6.504e-6, -3.448e-6
0.825, -6.612e-6, -3.514e-6
0.830, -6.530e-6, -3.579e-6
0.835, -6.624e-6, -3.645e-6
0.840, -6.554e-6, -3.711e-6
0.845, -6.663e-6, -3.777e-6
0.850, -6.591e-6, -3.843e-6
0.855, -6.692e-6, -3.910e-6
0.860, -6.624e-6, -3.976e-6
0.865, -6.728e-6, -4.044e-6
0.870, -6.664e-6, -4.110e-6
0.875, -6.764e-6, -4.178e-6
0.880, -6.718e-6, -4.245e-6
0.885, -6.830e-6, -4.314e-6
0.890, -6.769e-6, -4.381e-6
0.895, -6.904e-6, -4.450e-6
0.900, -6.848e-6, -4.519e-6
0.905, -6.965e-6, -4.588e-6
0.910, -6.916e-6, -4.658e-6
0.915, -7.036e-6, -4.728e-6
0.920, -6.994e-6, -4.798e-6
0.925, -7.108e-6, -4.869e-6
0.930, -7.073e-6, -4.940e-6
0.935, -7.177e-6, -5.011e-6
0.940, -7.138e-6, -5.083e-6
0.945, -7.256e-6, -5.155e-6
0.950, -7.227e-6, -5.228e-6
0.955, -7.342e-6, -5.301e-6
0.960, -7.291e-6, -5.374e-6
0.965, -7.408e-6, -5.448e-6
0.970, -7.378e-6, -5.522e-6
0.975, -7.480e-6, -5.597e-6
0.980, -7.440e-6, -5.671e-6
0.985, -7.544e-6, -5.746e-6
0.990, -7.512e-6, -5.822e-6
0.995, -7.625e-6, -5.898e-6
1.000, -7.581e-6, -5.974e-6
1.005, -7.687e-6, -6.051e-6
1.010, -7.653e-6, -6.127e-6
1.015, -7.759e-6, -6.205e-6
1.020, -7.716e-6, -6.282e-6
1.025, -7.827e-6, -6.360e-6
1.030, -7.779e-6, -6.438e-6
1.035, -7.879e-6, -6.517e-6
1.040, -7.841e-6, -6.595e-6
1.045, -7.936e-6, -6.674e-6
1.050, -7.907e-6, -6.754e-6
1.055, -8.020e-6, -6.834e-6
1.060, -7.969e-6, -6.913e-6
1.065, -8.072e-6, -6.994e-6
1.070, -8.030e-6, -7.074e-6
1.075, -8.126e-6, -7.156e-6
1.080, -8.078e-6, -7.236e-6
1.085, -8.176e-6, -7.318e-6
1.090, -8.142e-6, -7.400e-6
1.095, -8.227e-6, -7.482e-6
1.100, -8.197e-6, -7.564e-6
1.105, -8.286e-6, -7.647e-6
1.110, -8.255e-6, -7.729e-6
1.115, -8.325e-6, -7.813e-6
1.120, -8.304e-6, -7.896e-6
1.125, -8.409e-6, -7.980e-6
1.130, -8.367e-6, -8.063e-6
1.135, -8.465e-6, -8.148e-6
1.140, -8.431e-6, -8.232e-6
1.145, -8.530e-6, -8.318e-6
1.150, -7.568e-6, -8.393e-6

Segment 4:
1.145, -5.948e-6, -8.453e-6
1.140, -4.856e-6, -8.501e-6
1.135, -4.114e-6, -8.542e-6
1.130, -3.431e-6, -8.577e-6
1.125, -2.981e-6, -8.607e-6
1.120, -2.513e-6, -8.632e-6
1.115, -2.228e-6, -8.654e-6
1.110, -1.882e-6, -8.673e-6
1.105, -1.677e-6, -8.690e-6
1.100, -1.404e-6, -8.704e-6
1.095, -1.274e-6, -8.716e-6
1.090, -1.064e-6, -8.727e-6
1.085, -9.731e-7, -8.737e-6
1.080, -7.979e-7, -8.745e-6
1.075, -7.440e-7, -8.752e-6
1.070, -5.834e-7, -8.758e-6
1.065, -5.524e-7, -8.764e-6
1.060, -4.234e-7, -8.768e-6
1.055, -4.037e-7, -8.772e-6
1.050, -2.797e-7, -8.775e-6
1.045, -2.763e-7, -8.777e-6
1.040, -1.628e-7, -8.779e-6
1.035, -1.735e-7, -8.781e-6
1.030, -6.730e-8, -8.781e-6
1.025, -8.234e-8, -8.782e-6
1.020, 2.302e-8, -8.782e-6
1.015, 3.780e-9, -8.782e-6
1.010, 1.002e-7, -8.781e-6
1.005, 7.345e-8, -8.780e-6
1.000, 1.702e-7, -8.778e-6
0.995, 1.404e-7, -8.777e-6
0.990, 2.288e-7, -8.775e-6
0.985, 1.913e-7, -8.773e-6
0.980, 2.877e-7, -8.770e-6
0.975, 2.522e-7, -8.767e-6
0.970, 3.279e-7, -8.764e-6
0.965, 2.945e-7, -8.761e-6
0.960, 3.734e-7, -8.758e-6
0.955, 3.378e-7, -8.754e-6
0.950, 4.143e-7, -8.750e-6
0.945, 3.830e-7, -8.746e-6
0.940, 4.572e-7, -8.742e-6
0.935, 4.184e-7, -8.737e-6
0.930, 4.941e-7, -8.732e-6
0.925, 4.559e-7, -8.728e-6
0.920, 5.338e-7, -8.723e-6
0.915, 4.932e-7, -8.718e-6
0.910, 5.747e-7, -8.712e-6
0.905, 5.334e-7, -8.707e-6
0.900, 6.161e-7, -8.700e-6
0.895, 5.757e-7, -8.695e-6
0.890, 6.605e-7, -8.688e-6
0.885, 6.016e-7, -8.682e-6
0.880, 6.876e-7, -8.675e-6
0.875, 6.542e-7, -8.669e-6
0.870, 7.256e-7, -8.661e-6
0.865, 6.838e-7, -8.655e-6
0.860, 7.678e-7, -8.647e-6
0.855, 7.255e-7, -8.640e-6
0.850, 8.068e-7, -8.632e-6
0.845, 7.717e-7, -8.624e-6
0.840, 8.482e-7, -8.615e-6
0.835, 8.069e-7, -8.607e-6
0.830, 8.858e-7, -8.598e-6
0.825, 8.530e-7, -8.590e-6
0.820, 9.216e-7, -8.581e-6
0.815, 8.928e-7, -8.572e-6
0.810, 9.821e-7, -8.562e-6
0.805, 9.400e-7, -8.552e-6
0.800, 1.050e-6, -8.542e-6
0.795, 9.998e-7, -8.532e-6
0.790, 1.084e-6, -8.521e-6
0.785, 1.067e-6, -8.511e-6
0.780, 1.138e-6, -8.499e-6
0.775, 1.107e-6, -8.488e-6
0.770, 1.201e-6, -8.476e-6
0.765, 1.166e-6, -8.464e-6
0.760, 1.262e-6, -8.452e-6
0.755, 1.229e-6, -8.439e-6
0.750, 1.328e-6, -8.426e-6
0.745, 1.296e-6, -8.413e-6
0.740, 1.412e-6, -8.399e-6
0.735, 1.370e-6, -8.385e-6
0.730, 1.488e-6, -8.371e-6
0.725, 1.468e-6, -8.356e-6
0.720, 1.576e-6, -8.340e-6
0.715, 1.555e-6, -8.325e-6
0.710, 1.665e-6, -8.308e-6
0.705, 1.644e-6, -8.291e-6
0.700, 1.760e-6, -8.274e-6
0.695, 1.738e-6, -8.256e-6
0.690, 1.860e-6, -8.238e-6
0.685, 1.850e-6, -8.219e-6
0.680, 1.966e-6, -8.200e-6
0.675, 1.956e-6, -8.180e-6
0.670, 2.082e-6, -8.159e-6
0.665, 2.078e-6, -8.139e-6
0.660, 2.215e-6, -8.116e-6
0.655, 2.214e-6, -8.094e-6
0.650, 2.354e-6, -8.071e-6
0.645, 2.357e-6, -8.047e-6
0.640, 2.506e-6, -8.022e-6
0.635, 2.520e-6, -7.997e-6
0.630, 2.672e-6, -7.970e-6
0.625, 2.694e-6, -7.943e-6
0.620, 2.859e-6, -7.915e-6
0.615, 2.889e-6, -7.886e-6
0.610, 3.070e-6, -7.855e-6
0.605, 3.105e-6, -7.824e-6
0.600, 3.287e-6, -7.791e-6
0.595, 3.345e-6, -7.758e-6
0.590, 3.541e-6, -7.722e-6
0.585, 3.599e-6, -7.686e-6
0.580, 3.818e-6, -7.648e-6
0.575, 3.886e-6, -7.609e-6
0.570, 4.124e-6, -7.568e-6
0.565, 4.210e-6, -7.526e-6
0.560, 4.451e-6, -7.481e-6
0.555, 4.575e-6, -7.436e-6
0.550, 4.844e-6, -7.387e-6
0.545, 4.976e-6, -7.337e-6
0.540, 5.265e-6, -7.285e-6
0.535, 5.417e-6, -7.231e-6
0.530, 5.731e-6, -7.173e-6
0.525, 5.900e-6, -7.114e-6
0.520, 6.244e-6, -7.052e-6
0.515, 6.448e-6, -6.987e-6
0.510, 6.813e-6, -6.919e-6
0.505, 7.038e-6, -6.849e-6
0.500, 7.417e-6, -6.775e-6
0.495, 7.675e-6, -6.698e-6
0.490, 8.094e-6, -6.617e-6
0.485, 8.369e-6, -6.533e-6
0.480, 8.799e-6, -6.445e-6
0.475, 9.082e-6, -6.355e-6
0.470, 9.529e-6, -6.259e-6
0.465, 9.818e-6, -6.161e-6
0.460, 1.025e-5, -6.059e-6
0.455, 1.054e-5, -5.953e-6
0.450, 1.099e-5, -5.843e-6
0.445, 1.126e-5, -5.731e-6
0.440, 1.166e-5, -5.614e-6
0.435, 1.189e-5, -5.495e-6
0.430, 1.224e-5, -5.373e-6
0.425, 1.242e-5, -5.249e-6
0.420, 1.269e-5, -5.122e-6
0.415, 1.278e-5, -4.994e-6
0.410, 1.293e-5, -4.865e-6
0.405, 1.290e-5, -4.736e-6
0.400, 1.300e-5, -4.606e-6
0.395, 1.287e-5, -4.477e-6
0.390, 1.284e-5, -4.348e-6
0.385, 1.263e-5, -4.222e-6
0.380, 1.249e-5, -4.097e-6
0.375, 1.216e-5, -3.976e-6
0.370, 1.193e-5, -3.856e-6
0.365, 1.154e-5, -3.741e-6
0.360, 1.124e-5, -3.629e-6
0.355, 1.077e-5, -3.521e-6
0.350, 1.043e-5, -3.417e-6
0.345, 9.944e-6, -3.317e-6
0.340, 9.583e-6, -3.221e-6
0.335, 9.098e-6, -3.130e-6
0.330, 8.741e-6, -3.043e-6
0.325, 8.270e-6, -2.960e-6
0.320, 7.924e-6, -2.881e-6
0.315, 7.459e-6, -2.806e-6
0.310, 7.143e-6, -2.735e-6
0.305, 6.737e-6, -2.668e-6
0.300, 6.452e-6, -2.603e-6
0.295, 6.064e-6, -2.542e-6
0.290, 5.812e-6, -2.484e-6
0.285, 5.474e-6, -2.430e-6
0.280, 5.254e-6, -2.377e-6
0.275, 4.953e-6, -2.328e-6
0.270, 4.765e-6, -2.280e-6
0.265, 4.480e-6, -2.235e-6
0.260, 4.316e-6, -2.192e-6
0.255, 4.071e-6, -2.151e-6
0.250, 3.938e-6, -2.112e-6
0.245, 3.719e-6, -2.075e-6
0.240, 3.607e-6, -2.039e-6
0.235, 3.413e-6, -2.004e-6
0.230, 3.320e-6, -1.971e-6
0.225, 3.139e-6, -1.940e-6
0.220, 3.054e-6, -1.909e-6
0.215, 2.889e-6, -1.880e-6
0.210, 2.820e-6, -1.852e-6
0.205, 2.666e-6, -1.826e-6
0.200, 2.617e-6, -1.799e-6
0.195, 2.467e-6, -1.775e-6
0.190, 2.419e-6, -1.751e-6
0.185, 2.281e-6, -1.728e-6
0.180, 2.252e-6, -1.705e-6
0.175, 2.126e-6, -1.684e-6
0.170, 2.093e-6, -1.663e-6
0.165, 1.977e-6, -1.643e-6
0.160, 1.955e-6, -1.624e-6
0.155, 1.845e-6, -1.605e-6
0.150, 1.837e-6, -1.587e-6
0.145, 1.734e-6, -1.570e-6
0.140, 1.725e-6, -1.552e-6
0.135, 1.637e-6, -1.536e-6
0.130, 1.637e-6, -1.520e-6
0.125, 1.547e-6, -1.504e-6
0.120, 1.552e-6, -1.489e-6
0.115, 1.464e-6, -1.474e-6
0.110, 1.485e-6, -1.459e-6
0.105, 1.392e-6, -1.445e-6
0.100, 1.425e-6, -1.431e-6
0.095, 1.338e-6, -1.418e-6
0.090, 1.363e-6, -1.404e-6
0.085, 1.303e-6, -1.391e-6
0.080, 1.335e-6, -1.378e-6
0.075, 1.275e-6, -1.365e-6
0.070, 1.321e-6, -1.352e-6
0.065, 1.267e-6, -1.339e-6
0.060, 1.323e-6, -1.326e-6
0.055, 1.274e-6, -1.313e-6
0.050, 1.352e-6, -1.299e-6
0.045, 1.311e-6, -1.286e-6
0.040, 1.407e-6, -1.272e-6
0.035, 1.367e-6, -1.259e-6
0.030, 1.493e-6, -1.244e-6
0.025, 1.471e-6, -1.229e-6
0.020, 1.612e-6, -1.213e-6
0.015, 1.584e-6, -1.197e-6
0.010, 1.764e-6, -1.179e-6
0.005, 1.758e-6, -1.162e-6
0.000, 1.959e-6, -1.142e-6
-0.005, 1.986e-6, -1.122e-6
-0.010, 2.260e-6, -1.100e-6
-0.015, 2.303e-6, -1.077e-6
-0.020, 2.664e-6, -1.050e-6
-0.025, 2.734e-6, -1.023e-6
-0.030, 3.176e-6, -9.909e-7
-0.035, 3.273e-6, -9.582e-7
-0.040, 3.785e-6, -9.203e-7
-0.045, 3.879e-6, -8.815e-7
-0.050, 4.420e-6, -8.373e-7
-0.055, 4.456e-6, -7.928e-7
-0.060, 5.019e-6, -7.426e-7
-0.065, 4.962e-6, -6.930e-7
-0.070, 5.468e-6, -6.383e-7
-0.075, 5.353e-6, -5.847e-7
-0.080, 5.789e-6, -5.269e-7
-0.085, 5.615e-6, -4.707e-7
-0.090, 6.016e-6, -4.105e-7
-0.095, 5.798e-6, -3.526e-7
-0.100, 6.204e-6, -2.905e-7
-0.105, 5.939e-6, -2.311e-7
-0.110, 6.306e-6, -1.681e-7
-0.115, 5.992e-6, -1.082e-7
-0.120, 6.376e-6, -4.439e-8
-0.125, 6.043e-6, 1.604e-8
-0.130, 6.442e-6, 8.046e-8
-0.135, 6.144e-6, 1.419e-7
-0.140, 6.544e-6, 2.073e-7
-0.145, 6.303e-6, 2.704e-7
-0.150, 6.785e-6, 3.382e-7
-0.155, 6.601e-6, 4.042e-7
-0.160, 7.180e-6, 4.760e-7
-0.165, 7.093e-6, 5.470e-7
-0.170, 7.794e-6, 6.249e-7
-0.175, 7.796e-6, 7.029e-7
-0.180, 8.583e-6, 7.887e-7
-0.185, 8.615e-6, 8.749e-7
-0.190, 9.418e-6, 9.690e-7
-0.195, 9.461e-6, 1.064e-6
-0.200, 1.030e-5, 1.167e-6
-0.205, 1.027e-5, 1.269e-6
-0.210, 1.107e-5, 1.380e-6
-0.215, 1.097e-5, 1.490e-6
-0.220, 1.169e-5, 1.607e-6
-0.225, 1.151e-5, 1.722e-6
-0.230, 1.216e-5, 1.843e-6
-0.235, 1.185e-5, 1.962e-6
-0.240, 1.235e-5, 2.085e-6
-0.245, 1.199e-5, 2.205e-6
-0.250, 1.242e-5, 2.330e-6
-0.255, 1.196e-5, 2.449e-6
-0.260, 1.238e-5, 2.573e-6
-0.265, 1.195e-5, 2.692e-6
-0.270, 1.233e-5, 2.816e-6
-0.275, 1.193e-5, 2.935e-6
-0.280, 8.147e-6, 3.017e-6

Segment 5:
-0.275, -8.445e-7, 3.008e-6
-0.270, -2.758e-6, 2.981e-6
-0.265, -4.447e-6, 2.936e-6
-0.260, -4.955e-6, 2.887e-6
-0.255, -6.012e-6, 2.826e-6
-0.250, -6.149e-6, 2.765e-6
-0.245, -7.031e-6, 2.695e-6
-0.240, -6.981e-6, 2.625e-6
-0.235, -7.728e-6, 2.547e-6
-0.230, -7.587e-6, 2.472e-6
-0.225, -8.257e-6, 2.389e-6
-0.220, -7.957e-6, 2.309e-6
-0.215, -8.489e-6, 2.225e-6
-0.210, -8.118e-6, 2.143e-6
-0.205, -8.589e-6, 2.058e-6
-0.200, -8.081e-6, 1.977e-6
-0.195, -8.432e-6, 1.892e-6
-0.190, -7.893e-6, 1.813e-6
-0.185, -8.249e-6, 1.731e-6
-0.180, -7.656e-6, 1.654e-6
-0.175, -7.831e-6, 1.576e-6
-0.170, -7.140e-6, 1.505e-6
-0.165, -7.227e-6, 1.432e-6
-0.160, -6.532e-6, 1.367e-6
-0.155, -6.621e-6, 1.301e-6
-0.150, -5.996e-6, 1.241e-6
-0.145, -6.191e-6, 1.179e-6
-0.140, -5.653e-6, 1.122e-6
-0.135, -5.927e-6, 1.063e-6
-0.130, -5.507e-6, 1.008e-6
-0.125, -5.810e-6, 9.501e-7
-0.120, -5.456e-6, 8.955e-7
-0.115, -5.813e-6, 8.374e-7
-0.110, -5.506e-6, 7.823e-7
-0.105, -5.895e-6, 7.234e-7
-0.100, -5.618e-6, 6.672e-7
-0.095, -6.023e-6, 6.069e-7
-0.090, -5.738e-6, 5.496e-7
-0.085, -6.198e-6, 4.876e-7
-0.080, -5.939e-6, 4.282e-7
-0.075, -6.439e-6, 3.638e-7
-0.070, -6.150e-6, 3.023e-7
-0.065, -6.611e-6, 2.362e-7
-0.060, -6.308e-6, 1.731e-7
-0.055, -6.705e-6, 1.061e-7
-0.050, -6.239e-6, 4.367e-8
-0.045, -6.465e-6, -2.099e-8
-0.040, -5.803e-6, -7.901e-8
-0.035, -5.735e-6, -1.364e-7
-0.030, -4.938e-6, -1.857e-7
-0.025, -4.715e-6, -2.329e-7
-0.020, -3.954e-6, -2.724e-7
-0.015, -3.732e-6, -3.097e-7
-0.010, -3.137e-6, -3.411e-7
-0.005, -2.996e-6, -3.711e-7
-0.000, -2.520e-6, -3.963e-7
0.005, -2.468e-6, -4.210e-7
0.010, -2.109e-6, -4.421e-7
0.015, -2.078e-6, -4.628e-7
0.020, -1.808e-6, -4.809e-7
0.025, -1.798e-6, -4.989e-7
0.030, -1.556e-6, -5.145e-7
0.035, -1.551e-6, -5.300e-7
0.040, -1.364e-6, -5.436e-7
0.045, -1.367e-6, -5.573e-7
0.050, -1.212e-6, -5.694e-7
0.055, -1.223e-6, -5.816e-7
0.060, -1.103e-6, -5.927e-7
0.065, -1.115e-6, -6.038e-7
0.070, -1.009e-6, -6.139e-7
0.075, -1.030e-6, -6.242e-7
0.080, -9.313e-7, -6.335e-7
0.085, -9.627e-7, -6.431e-7
0.090, -8.812e-7, -6.519e-7
0.095, -9.109e-7, -6.610e-7
0.100, -8.447e-7, -6.695e-7
0.105, -8.798e-7, -6.783e-7
0.110, -8.249e-7, -6.865e-7
0.115, -8.576e-7, -6.951e-7
0.120, -8.027e-7, -7.031e-7
0.125, -8.408e-7, -7.115e-7
0.130, -7.889e-7, -7.194e-7
0.135, -8.314e-7, -7.278e-7
0.140, -7.811e-7, -7.356e-7
0.145, -8.254e-7, -7.438e-7
0.150, -7.774e-7, -7.516e-7
0.155, -8.231e-7, -7.598e-7
0.160, -7.714e-7, -7.675e-7
0.165, -8.179e-7, -7.757e-7
0.170, -7.694e-7, -7.834e-7
0.175, -8.154e-7, -7.916e-7
0.180, -7.697e-7, -7.993e-7
0.185, -8.146e-7, -8.074e-7
0.190, -7.659e-7, -8.151e-7
0.195, -8.149e-7, -8.232e-7
0.200, -7.665e-7, -8.309e-7
0.205, -8.191e-7, -8.391e-7
0.210, -7.660e-7, -8.467e-7
0.215, -8.154e-7, -8.549e-7
0.220, -7.696e-7, -8.626e-7
0.225, -8.174e-7, -8.708e-7
0.230, -7.739e-7, -8.785e-7
0.235, -8.208e-7, -8.867e-7
0.240, -7.722e-7, -8.944e-7
0.245, -8.202e-7, -9.026e-7
0.250, -7.769e-7, -9.104e-7
0.255, -8.224e-7, -9.186e-7
0.260, -7.788e-7, -9.264e-7
0.265, -8.242e-7, -9.346e-7
0.270, -7.807e-7, -9.425e-7
0.275, -8.288e-7, -9.507e-7
0.280, -7.855e-7, -9.586e-7
0.285, -8.332e-7, -9.669e-7
0.290, -7.882e-7, -9.748e-7
0.295, -8.309e-7, -9.831e-7
0.300, -7.914e-7, -9.910e-7
0.305, -8.383e-7, -9.994e-7
0.310, -7.985e-7, -1.007e-6
0.315, -8.421e-7, -1.016e-6
0.320, -8.063e-7, -1.024e-6
0.325, -8.568e-7, -1.032e-6
0.330, -8.218e-7, -1.041e-6
0.335, -8.715e-7, -1.049e-6
0.340, -8.321e-7, -1.058e-6
0.345, -8.803e-7, -1.067e-6
0.350, -8.422e-7, -1.075e-6
0.355, -8.931e-7, -1.084e-6
0.360, -8.583e-7, -1.092e-6
0.365, -9.187e-7, -1.102e-6
0.370, -8.808e-7, -1.110e-6
0.375, -9.400e-7, -1.120e-6
0.380, -9.000e-7, -1.129e-6
0.385, -9.758e-7, -1.139e-6
0.390, -9.361e-7, -1.148e-6
0.395, -1.007e-6, -1.158e-6
0.400, -9.788e-7, -1.168e-6
0.405, -1.045e-6, -1.178e-6
0.410, -1.003e-6, -1.188e-6
0.415, -1.100e-6, -1.199e-6
0.420, -1.067e-6, -1.210e-6
0.425, -1.155e-6, -1.222e-6
0.430, -1.126e-6, -1.233e-6
0.435, -1.223e-6, -1.245e-6
0.440, -1.191e-6, -1.257e-6
0.445, -1.291e-6, -1.270e-6
0.450, -1.268e-6, -1.283e-6
0.455, -1.379e-6, -1.296e-6
0.460, -1.354e-6, -1.310e-6
0.465, -1.483e-6, -1.325e-6
0.470, -1.467e-6, -1.339e-6
0.475, -1.604e-6, -1.355e-6
0.480, -1.599e-6, -1.371e-6
0.485, -1.781e-6, -1.389e-6
0.490, -1.785e-6, -1.407e-6
0.495, -1.975e-6, -1.427e-6
0.500, -2.001e-6, -1.447e-6
0.505, -2.230e-6, -1.469e-6
0.510, -2.283e-6, -1.492e-6
0.515, -2.537e-6, -1.517e-6
0.520, -2.613e-6, -1.543e-6
0.525, -2.900e-6, -1.572e-6
0.530, -2.994e-6, -1.602e-6
0.535, -3.301e-6, -1.635e-6
0.540, -3.389e-6, -1.669e-6
0.545, -3.696e-6, -1.706e-6
0.550, -3.757e-6, -1.744e-6
0.555, -4.051e-6, -1.784e-6
0.560, -4.087e-6, -1.825e-6
0.565, -4.363e-6, -1.869e-6
0.570, -4.376e-6, -1.913e-6
0.575, -4.646e-6, -1.959e-6
0.580, -4.649e-6, -2.005e-6
0.585, -4.925e-6, -2.055e-6
0.590, -4.925e-6, -2.104e-6
0.595, -5.171e-6, -2.156e-6
0.600, -5.156e-6, -2.207e-6
0.605, -5.420e-6, -2.261e-6
0.610, -5.403e-6, -2.315e-6
0.615, -5.648e-6, -2.372e-6
0.620, -5.605e-6, -2.428e-6
0.625, -5.843e-6, -2.486e-6
0.630, -5.799e-6, -2.544e-6
0.635, -6.009e-6, -2.605e-6
0.640, -5.949e-6, -2.664e-6
0.645, -6.151e-6, -2.726e-6
0.650, -6.064e-6, -2.786e-6
0.655, -6.241e-6, -2.849e-6
0.660, -6.159e-6, -2.910e-6
0.665, -6.319e-6, -2.973e-6
0.670, -6.220e-6, -3.036e-6
0.675, -6.386e-6, -3.099e-6
0.680, -6.275e-6, -3.162e-6
0.685, -6.446e-6, -3.227e-6
0.690, -6.319e-6, -3.290e-6
0.695, -6.473e-6, -3.355e-6
0.700, -6.352e-6, -3.418e-6
0.705, -6.502e-6, -3.483e-6
0.710, -6.369e-6, -3.547e-6
0.715, -6.532e-6, -3.612e-6
0.720, -6.409e-6, -3.676e-6
0.725, -6.548e-6, -3.742e-6
0.730, -6.428e-6, -3.806e-6
0.735, -6.563e-6, -3.872e-6
0.740, -6.451e-6, -3.936e-6
0.745, -6.586e-6, -4.002e-6
0.750, -6.463e-6, -4.067e-6
0.755, -6.578e-6, -4.132e-6
0.760, -6.466e-6, -4.197e-6
0.765, -6.576e-6, -4.263e-6
0.770, -6.457e-6, -4.327e-6
0.775, -6.561e-6, -4.393e-6
0.780, -6.441e-6, -4.457e-6
0.785, -6.549e-6, -4.523e-6
0.790, -6.430e-6, -4.587e-6
0.795, -6.532e-6, -4.652e-6
0.800, -6.416e-6, -4.717e-6
0.805, -6.509e-6, -4.782e-6
0.810, -6.395e-6, -4.846e-6
0.815, -6.500e-6, -4.911e-6
0.820, -6.365e-6, -4.974e-6
0.825, -6.485e-6, -5.039e-6
0.830, -6.377e-6, -5.103e-6
0.835, -6.487e-6, -5.168e-6
0.840, -6.386e-6, -5.232e-6
0.845, -6.503e-6, -5.297e-6
0.850, -6.419e-6, -5.361e-6
0.855, -6.517e-6, -5.426e-6
0.860, -6.440e-6, -5.490e-6
0.865, -6.552e-6, -5.556e-6
0.870, -6.470e-6, -5.621e-6
0.875, -6.580e-6, -5.687e-6
0.880, -6.508e-6, -5.752e-6
0.885, -6.615e-6, -5.818e-6
0.890, -6.557e-6, -5.883e-6
0.895, -6.668e-6, -5.950e-6
0.900, -6.608e-6, -6.016e-6
0.905, -6.721e-6, -6.083e-6
0.910, -6.661e-6, -6.150e-6
0.915, -6.760e-6, -6.218e-6
0.920, -6.726e-6, -6.285e-6
0.925, -6.842e-6, -6.353e-6
0.930, -6.777e-6, -6.421e-6
0.935, -6.900e-6, -6.490e-6
0.940, -6.848e-6, -6.558e-6
0.945, -6.958e-6, -6.628e-6
0.950, -6.905e-6, -6.697e-6
0.955, -7.013e-6, -6.767e-6
0.960, -6.970e-6, -6.837e-6
0.965, -7.075e-6, -6.908e-6
0.970, -7.025e-6, -6.978e-6
0.975, -7.127e-6, -7.049e-6
0.980, -7.078e-6, -7.120e-6
0.985, -7.179e-6, -7.192e-6
0.990, -7.132e-6, -7.263e-6
0.995, -7.237e-6, -7.335e-6
1.000, -7.184e-6, -7.407e-6
1.005, -7.288e-6, -7.480e-6
1.010, -7.234e-6, -7.553e-6
1.015, -7.338e-6, -7.626e-6
1.020, -7.281e-6, -7.699e-6
1.025, -7.384e-6, -7.773e-6
1.030, -7.332e-6, -7.846e-6
1.035, -7.425e-6, -7.920e-6
1.040, -7.376e-6, -7.994e-6
1.045, -7.468e-6, -8.069e-6
1.050, -7.421e-6, -8.143e-6
1.055, -7.507e-6, -8.218e-6
1.060, -7.456e-6, -8.292e-6
1.065, -7.539e-6, -8.368e-6
1.070, -7.492e-6, -8.443e-6
1.075, -7.574e-6, -8.518e-6
1.080, -7.529e-6, -8.594e-6
1.085, -7.619e-6, -8.670e-6
1.090, -7.564e-6, -8.746e-6
1.095, -7.660e-6, -8.822e-6
1.100, -7.615e-6, -8.898e-6
1.105, -7.698e-6, -8.975e-6
1.110, -7.657e-6, -9.052e-6
1.115, -7.742e-6, -9.129e-6
1.120, -7.697e-6, -9.206e-6
1.125, -7.789e-6, -9.284e-6
1.130, -7.757e-6, -9.362e-6
1.135, -7.842e-6, -9.440e-6
1.140, -7.805e-6, -9.518e-6
1.145, -7.897e-6, -9.597e-6
1.150, -6.930e-6, -9.666e-6

Segment 6:
1.145, -5.375e-6, -9.720e-6
1.140, -4.335e-6, -9.764e-6
1.135, -3.653e-6, -9.800e-6
1.130, -3.026e-6, -9.830e-6
1.125, -2.614e-6, -9.856e-6
1.120, -2.182e-6, -9.878e-6
1.115, -1.928e-6, -9.898e-6
1.110, -1.597e-6, -9.914e-6
1.105, -1.427e-6, -9.928e-6
1.100, -1.176e-6, -9.940e-6
1.095, -1.069e-6, -9.950e-6
1.090, -8.672e-7, -9.959e-6
1.085, -7.967e-7, -9.967e-6
1.080, -6.340e-7, -9.973e-6
1.075, -5.925e-7, -9.979e-6
1.070, -4.482e-7, -9.984e-6
1.065, -4.229e-7, -9.988e-6
1.060, -2.989e-7, -9.991e-6
1.055, -2.863e-7, -9.994e-6
1.050, -1.697e-7, -9.995e-6
1.045, -1.704e-7, -9.997e-6
1.040, -6.888e-8, -9.998e-6
1.035, -7.844e-8, -9.999e-6
1.030, 2.568e-8, -9.998e-6
1.025, 1.404e-8, -9.998e-6
1.020, 1.030e-7, -9.997e-6
1.015, 8.619e-8, -9.996e-6
1.010, 1.738e-7, -9.995e-6
1.005, 1.507e-7, -9.993e-6
1.000, 2.429e-7, -9.991e-6
0.995, 2.044e-7, -9.989e-6
0.990, 2.910e-7, -9.986e-6
0.985, 2.673e-7, -9.983e-6
0.980, 3.344e-7, -9.980e-6
0.975, 2.997e-7, -9.977e-6
0.970, 3.813e-7, -9.973e-6
0.965, 3.477e-7, -9.969e-6
0.960, 4.203e-7, -9.965e-6
0.955, 3.944e-7, -9.961e-6
0.950, 4.668e-7, -9.957e-6
0.945, 4.302e-7, -9.952e-6
0.940, 5.013e-7, -9.947e-6
0.935, 4.680e-7, -9.943e-6
0.930, 5.407e-7, -9.937e-6
0.925, 5.015e-7, -9.932e-6
0.920, 5.809e-7, -9.926e-6
0.915, 5.444e-7, -9.921e-6
0.910, 6.208e-7, -9.915e-6
0.905, 5.793e-7, -9.909e-6
0.900, 6.639e-7, -9.902e-6
0.895, 6.182e-7, -9.896e-6
0.890, 6.907e-7, -9.889e-6
0.885, 6.590e-7, -9.883e-6
0.880, 7.277e-7, -9.875e-6
0.875, 6.910e-7, -9.868e-6
0.870, 7.647e-7, -9.861e-6
0.865, 7.280e-7, -9.853e-6
0.860, 8.047e-7, -9.845e-6
0.855, 7.663e-7, -9.838e-6
0.850, 8.458e-7, -9.829e-6
0.845, 8.102e-7, -9.821e-6
0.840, 8.825e-7, -9.812e-6
0.835, 8.494e-7, -9.804e-6
0.830, 9.273e-7, -9.795e-6
0.825, 8.890e-7, -9.786e-6
0.820, 9.629e-7, -9.776e-6
0.815, 9.339e-7, -9.767e-6
0.810, 1.031e-6, -9.756e-6
0.805, 9.848e-7, -9.747e-6
0.800, 1.075e-6, -9.736e-6
0.795, 1.052e-6, -9.725e-6
0.790, 1.128e-6, -9.714e-6
0.785, 1.091e-6, -9.703e-6
0.780, 1.180e-6, -9.691e-6
0.775, 1.148e-6, -9.680e-6
0.770, 1.238e-6, -9.667e-6
0.765, 1.210e-6, -9.655e-6
0.760, 1.300e-6, -9.642e-6
0.755, 1.271e-6, -9.630e-6
0.750, 1.371e-6, -9.616e-6
0.745, 1.340e-6, -9.603e-6
0.740, 1.462e-6, -9.588e-6
0.735, 1.429e-6, -9.574e-6
0.730, 1.535e-6, -9.558e-6
0.725, 1.513e-6, -9.543e-6
0.720, 1.621e-6, -9.527e-6
0.715, 1.599e-6, -9.511e-6
0.710, 1.707e-6, -9.494e-6
0.705, 1.686e-6, -9.477e-6
0.700, 1.807e-6, -9.459e-6
0.695, 1.785e-6, -9.441e-6
0.690, 1.907e-6, -9.422e-6
0.685, 1.896e-6, -9.403e-6
0.680, 2.015e-6, -9.383e-6
0.675, 2.009e-6, -9.363e-6
0.670, 2.137e-6, -9.341e-6
0.665, 2.131e-6, -9.320e-6
0.660, 2.263e-6, -9.298e-6
0.655, 2.265e-6, -9.275e-6
0.650, 2.410e-6, -9.251e-6
0.645, 2.421e-6, -9.227e-6
0.640, 2.571e-6, -9.201e-6
0.635, 2.591e-6, -9.175e-6
0.630, 2.746e-6, -9.147e-6
0.625, 2.763e-6, -9.120e-6
0.620, 2.936e-6, -9.090e-6
0.615, 2.959e-6, -9.061e-6
0.610, 3.144e-6, -9.029e-6
0.605, 3.188e-6, -8.998e-6
0.600, 3.378e-6, -8.964e-6
0.595, 3.429e-6, -8.930e-6
0.590, 3.633e-6, -8.893e-6
0.585, 3.696e-6, -8.856e-6
0.580, 3.915e-6, -8.817e-6
0.575, 3.989e-6, -8.777e-6
0.570, 4.233e-6, -8.735e-6
0.565, 4.326e-6, -8.692e-6
0.560, 4.592e-6, -8.646e-6
0.555, 4.708e-6, -8.599e-6
0.550, 4.981e-6, -8.549e-6
0.545, 5.121e-6, -8.498e-6
0.540, 5.419e-6, -8.443e-6
0.535, 5.582e-6, -8.388e-6
0.530, 5.905e-6, -8.329e-6
0.525, 6.093e-6, -8.268e-6
0.520, 6.454e-6, -8.203e-6
0.515, 6.663e-6, -8.136e-6
0.510, 7.045e-6, -8.066e-6
0.505, 7.282e-6, -7.993e-6
0.500, 7.693e-6, -7.916e-6
0.495, 7.966e-6, -7.837e-6
0.490, 8.400e-6, -7.753e-6
0.485, 8.686e-6, -7.666e-6
0.480, 9.144e-6, -7.574e-6
0.475, 9.442e-6, -7.480e-6
0.470, 9.910e-6, -7.381e-6
0.465, 1.021e-5, -7.279e-6
0.460, 1.068e-5, -7.172e-6
0.455, 1.101e-5, -7.062e-6
0.450, 1.146e-5, -6.947e-6
0.445, 1.174e-5, -6.830e-6
0.440, 1.216e-5, -6.708e-6
0.435, 1.241e-5, -6.584e-6
0.430, 1.277e-5, -6.456e-6
0.425, 1.294e-5, -6.327e-6
0.420, 1.322e-5, -6.195e-6
0.415, 1.329e-5, -6.062e-6
0.410, 1.344e-5, -5.927e-6
0.405, 1.341e-5, -5.793e-6
0.400, 1.349e-5, -5.658e-6
0.395, 1.335e-5, -5.525e-6
0.390, 1.330e-5, -5.392e-6
0.385, 1.305e-5, -5.261e-6
0.380, 1.289e-5, -5.132e-6
0.375, 1.254e-5, -5.007e-6
0.370, 1.227e-5, -4.884e-6
0.365, 1.183e-5, -4.766e-6
0.360, 1.150e-5, -4.651e-6
0.355, 1.101e-5, -4.541e-6
0.350, 1.062e-5, -4.435e-6
0.345, 1.011e-5, -4.334e-6
0.340, 9.729e-6, -4.236e-6
0.335, 9.216e-6, -4.144e-6
0.330, 8.836e-6, -4.056e-6
0.325, 8.345e-6, -3.972e-6
0.320, 7.977e-6, -3.893e-6
0.315, 7.501e-6, -3.818e-6
0.310, 7.171e-6, -3.746e-6
0.305, 6.753e-6, -3.678e-6
0.300, 6.455e-6, -3.614e-6
0.295, 6.061e-6, -3.553e-6
0.290, 5.800e-6, -3.495e-6
0.285, 5.460e-6, -3.441e-6
0.280, 5.235e-6, -3.388e-6
0.275, 4.934e-6, -3.339e-6
0.270, 4.738e-6, -3.292e-6
0.265, 4.447e-6, -3.247e-6
0.260, 4.285e-6, -3.204e-6
0.255, 4.042e-6, -3.164e-6
0.250, 3.905e-6, -3.125e-6
0.245, 3.687e-6, -3.088e-6
0.240, 3.572e-6, -3.052e-6
0.235, 3.385e-6, -3.018e-6
0.230, 3.284e-6, -2.985e-6
0.225, 3.101e-6, -2.954e-6
0.220, 3.023e-6, -2.924e-6
0.215, 2.854e-6, -2.896e-6
0.210, 2.785e-6, -2.868e-6
0.205, 2.641e-6, -2.841e-6
0.200, 2.578e-6, -2.816e-6
0.195, 2.434e-6, -2.791e-6
0.190, 2.381e-6, -2.767e-6
0.185, 2.254e-6, -2.745e-6
0.180, 2.216e-6, -2.723e-6
0.175, 2.084e-6, -2.702e-6
0.170, 2.053e-6, -2.681e-6
0.165, 1.936e-6, -2.662e-6
0.160, 1.914e-6, -2.643e-6
0.155, 1.809e-6, -2.625e-6
0.150, 1.791e-6, -2.607e-6
0.145, 1.692e-6, -2.590e-6
0.140, 1.685e-6, -2.573e-6
0.135, 1.595e-6, -2.557e-6
0.130, 1.593e-6, -2.541e-6
0.125, 1.506e-6, -2.526e-6
0.120, 1.511e-6, -2.511e-6
0.115, 1.437e-6, -2.497e-6
0.110, 1.450e-6, -2.482e-6
0.105, 1.359e-6, -2.469e-6
0.100, 1.374e-6, -2.455e-6
0.095, 1.309e-6, -2.442e-6
0.090, 1.330e-6, -2.428e-6
0.085, 1.272e-6, -2.416e-6
0.080, 1.306e-6, -2.403e-6
0.075, 1.254e-6, -2.390e-6
0.070, 1.297e-6, -2.377e-6
0.065, 1.246e-6, -2.365e-6
0.060, 1.303e-6, -2.352e-6
0.055, 1.261e-6, -2.339e-6
0.050, 1.324e-6, -2.326e-6
0.045, 1.288e-6, -2.313e-6
0.040, 1.381e-6, -2.299e-6
0.035, 1.348e-6, -2.286e-6
0.030, 1.479e-6, -2.271e-6
0.025, 1.461e-6, -2.256e-6
0.020, 1.597e-6, -2.240e-6
0.015, 1.583e-6, -2.225e-6
0.010, 1.763e-6, -2.207e-6
0.005, 1.756e-6, -2.189e-6
0.000, 1.967e-6, -2.170e-6
-0.005, 1.995e-6, -2.150e-6
-0.010, 2.294e-6, -2.127e-6
-0.015, 2.325e-6, -2.103e-6
-0.020, 2.708e-6, -2.076e-6
-0.025, 2.795e-6, -2.048e-6
-0.030, 3.265e-6, -2.016e-6
-0.035, 3.376e-6, -1.982e-6
-0.040, 3.908e-6, -1.943e-6
-0.045, 4.001e-6, -1.903e-6
-0.050, 4.586e-6, -1.857e-6
-0.055, 4.635e-6, -1.811e-6
-0.060, 5.210e-6, -1.759e-6
-0.065, 5.140e-6, -1.707e-6
-0.070, 5.652e-6, -1.651e-6
-0.075, 5.514e-6, -1.596e-6
-0.080, 5.969e-6, -1.536e-6
-0.085, 5.749e-6, -1.478e-6
-0.090, 6.174e-6, -1.417e-6
-0.095, 5.898e-6, -1.358e-6
-0.100, 6.304e-6, -1.295e-6
-0.105, 5.994e-6, -1.235e-6
-0.110, 6.382e-6, -1.171e-6
-0.115, 6.021e-6, -1.111e-6
-0.120, 6.401e-6, -1.047e-6
-0.125, 6.066e-6, -9.860e-7
-0.130, 6.433e-6, -9.217e-7
-0.135, 6.132e-6, -8.603e-7
-0.140, 6.540e-6, -7.949e-7
-0.145, 6.285e-6, -7.321e-7
-0.150, 6.777e-6, -6.643e-7
-0.155, 6.599e-6, -5.983e-7
-0.160, 7.211e-6, -5.262e-7
-0.165, 7.144e-6, -4.548e-7
-0.170, 7.840e-6, -3.764e-7
-0.175, 7.860e-6, -2.978e-7
-0.180, 8.712e-6, -2.107e-7
-0.185, 8.736e-6, -1.233e-7
-0.190, 9.613e-6, -2.717e-8
-0.195, 9.632e-6, 6.915e-8
-0.200, 1.048e-5, 1.740e-7
-0.205, 1.048e-5, 2.788e-7
-0.210, 1.129e-5, 3.917e-7
-0.215, 1.118e-5, 5.035e-7
-0.220, 1.191e-5, 6.226e-7
-0.225, 1.170e-5, 7.396e-7
-0.230, 1.234e-5, 8.630e-7
-0.235, 1.199e-5, 9.829e-7
-0.240, 1.252e-5, 1.108e-6
-0.245, 1.206e-5, 1.229e-6
-0.250, 1.247e-5, 1.353e-6
-0.255, 1.196e-5, 1.473e-6
-0.260, 1.236e-5, 1.597e-6
-0.265, 1.188e-5, 1.715e-6
-0.270, 1.225e-5, 1.838e-6
-0.275, 1.179e-5, 1.956e-6
-0.280, 7.988e-6, 2.036e-6

Segment 7:
-0.275, -1.125e-6, 2.024e-6
-0.270, -2.988e-6, 1.995e-6
-0.265, -4.675e-6, 1.948e-6
-0.260, -5.150e-6, 1.896e-6
-0.255, -6.237e-6, 1.834e-6
-0.250, -6.372e-6, 1.770e-6
-0.245, -7.211e-6, 1.698e-6
-0.240, -7.191e-6, 1.626e-6
-0.235, -8.035e-6, 1.546e-6
-0.230, -7.886e-6, 1.467e-6
-0.225, -8.563e-6, 1.381e-6
-0.220, -8.238e-6, 1.299e-6
-0.215, -8.835e-6, 1.211e-6
-0.210, -8.410e-6, 1.126e-6
-0.205, -8.881e-6, 1.038e-6
-0.200, -8.359e-6, 9.541e-7
-0.195, -8.735e-6, 8.667e-7
-0.190, -8.189e-6, 7.848e-7
-0.185, -8.524e-6, 6.996e-7
-0.180, -7.890e-6, 6.207e-7
-0.175, -8.112e-6, 5.396e-7
-0.170, -7.331e-6, 4.663e-7
-0.165, -7.394e-6, 3.923e-7
-0.160, -6.660e-6, 3.257e-7
-0.155, -6.736e-6, 2.584e-7
-0.150, -6.093e-6, 1.974e-7
-0.145, -6.265e-6, 1.348e-7
-0.140, -5.731e-6, 7.746e-8
-0.135, -5.984e-6, 1.762e-8
-0.130, -5.562e-6, -3.800e-8
-0.125, -5.912e-6, -9.712e-8
-0.120, -5.530e-6, -1.524e-7
-0.115, -5.901e-6, -2.114e-7
-0.110, -5.606e-6, -2.675e-7
-0.105, -6.011e-6, -3.276e-7
-0.100, -5.764e-6, -3.852e-7
-0.095, -6.192e-6, -4.472e-7
-0.090, -5.908e-6, -5.062e-7
-0.085, -6.397e-6, -5.702e-7
-0.080, -6.134e-6, -6.315e-7
-0.075, -6.650e-6, -6.980e-7
-0.070, -6.382e-6, -7.619e-7
-0.065, -6.855e-6, -8.304e-7
-0.060, -6.561e-6, -8.960e-7
-0.055, -6.948e-6, -9.655e-7
-0.050, -6.469e-6, -1.030e-6
-0.045, -6.648e-6, -1.097e-6
-0.040, -5.938e-6, -1.156e-6
-0.035, -5.823e-6, -1.214e-6
-0.030, -4.981e-6, -1.264e-6
-0.025, -4.724e-6, -1.311e-6
-0.020, -3.952e-6, -1.351e-6
-0.015, -3.722e-6, -1.388e-6
-0.010, -3.126e-6, -1.419e-6
-0.005, -2.977e-6, -1.449e-6
-0.000, -2.504e-6, -1.474e-6
0.005, -2.445e-6, -1.499e-6
0.010, -2.101e-6, -1.520e-6
0.015, -2.060e-6, -1.540e-6
0.020, -1.793e-6, -1.558e-6
0.025, -1.780e-6, -1.576e-6
0.030, -1.545e-6, -1.591e-6
0.035, -1.536e-6, -1.607e-6
0.040, -1.351e-6, -1.620e-6
0.045, -1.349e-6, -1.634e-6
0.050, -1.202e-6, -1.646e-6
0.055, -1.209e-6, -1.658e-6
0.060, -1.082e-6, -1.669e-6
0.065, -1.097e-6, -1.680e-6
0.070, -9.889e-7, -1.690e-6
0.075, -1.014e-6, -1.700e-6
0.080, -9.143e-7, -1.709e-6
0.085, -9.474e-7, -1.718e-6
0.090, -8.656e-7, -1.727e-6
0.095, -8.988e-7, -1.736e-6
0.100, -8.359e-7, -1.744e-6
0.105, -8.714e-7, -1.753e-6
0.110, -8.095e-7, -1.761e-6
0.115, -8.446e-7, -1.770e-6
0.120, -7.924e-7, -1.777e-6
0.125, -8.313e-7, -1.786e-6
0.130, -7.792e-7, -1.794e-6
0.135, -8.246e-7, -1.802e-6
0.140, -7.715e-7, -1.810e-6
0.145, -8.167e-7, -1.818e-6
0.150, -7.611e-7, -1.825e-6
0.155, -8.056e-7, -1.833e-6
0.160, -7.565e-7, -1.841e-6
0.165, -8.005e-7, -1.849e-6
0.170, -7.554e-7, -1.856e-6
0.175, -7.967e-7, -1.864e-6
0.180, -7.529e-7, -1.872e-6
0.185, -7.979e-7, -1.880e-6
0.190, -7.530e-7, -1.887e-6
0.195, -7.979e-7, -1.895e-6
0.200, -7.542e-7, -1.903e-6
0.205, -7.959e-7, -1.911e-6
0.210, -7.518e-7, -1.918e-6
0.215, -7.977e-7, -1.926e-6
0.220, -7.531e-7, -1.934e-6
0.225, -7.983e-7, -1.942e-6
0.230, -7.597e-7, -1.950e-6
0.235, -7.963e-7, -1.958e-6
0.240, -7.539e-7, -1.965e-6
0.245, -8.025e-7, -1.973e-6
0.250, -7.557e-7, -1.981e-6
0.255, -8.015e-7, -1.989e-6
0.260, -7.599e-7, -1.996e-6
0.265, -8.067e-7, -2.004e-6
0.270, -7.580e-7, -2.012e-6
0.275, -8.074e-7, -2.020e-6
0.280, -7.650e-7, -2.028e-6
0.285, -8.125e-7, -2.036e-6
0.290, -7.662e-7, -2.043e-6
0.295, -8.155e-7, -2.052e-6
0.300, -7.757e-7, -2.059e-6
0.305, -8.229e-7, -2.068e-6
0.310, -7.792e-7, -2.075e-6
0.315, -8.278e-7, -2.084e-6
0.320, -7.864e-7, -2.092e-6
0.325, -8.314e-7, -2.100e-6
0.330, -7.916e-7, -2.108e-6
0.335, -8.359e-7, -2.116e-6
0.340, -7.988e-7, -2.124e-6
0.345, -8.451e-7, -2.133e-6
0.350, -8.133e-7, -2.141e-6
0.355, -8.653e-7, -2.149e-6
0.360, -8.294e-7, -2.158e-6
0.365, -8.794e-7, -2.166e-6
0.370, -8.407e-7, -2.175e-6
0.375, -8.931e-7, -2.184e-6
0.380, -8.636e-7, -2.192e-6
0.385, -9.269e-7, -2.202e-6
0.390, -8.880e-7, -2.211e-6
0.395, -9.601e-7, -2.220e-6
0.400, -9.249e-7, -2.229e-6
0.405, -9.953e-7, -2.239e-6
0.410, -9.489e-7, -2.249e-6
0.415, -1.038e-6, -2.259e-6
0.420, -1.012e-6, -2.269e-6
0.425, -1.106e-6, -2.280e-6
0.430, -1.065e-6, -2.291e-6
0.435, -1.161e-6, -2.303e-6
0.440, -1.136e-6, -2.314e-6
0.445, -1.231e-6, -2.326e-6
0.450, -1.206e-6, -2.338e-6
0.455, -1.312e-6, -2.351e-6
0.460, -1.288e-6, -2.364e-6
0.465, -1.416e-6, -2.379e-6
0.470, -1.400e-6, -2.393e-6
0.475, -1.539e-6, -2.408e-6
0.480, -1.537e-6, -2.423e-6
0.485, -1.708e-6, -2.440e-6
0.490, -1.710e-6, -2.457e-6
0.495, -1.920e-6, -2.477e-6
0.500, -1.941e-6, -2.496e-6
0.505, -2.179e-6, -2.518e-6
0.510, -2.238e-6, -2.540e-6
0.515, -2.497e-6, -2.565e-6
0.520, -2.588e-6, -2.591e-6
0.525, -2.886e-6, -2.620e-6
0.530, -2.995e-6, -2.650e-6
0.535, -3.309e-6, -2.683e-6
0.540, -3.424e-6, -2.717e-6
0.545, -3.742e-6, -2.755e-6
0.550, -3.814e-6, -2.793e-6
0.555, -4.126e-6, -2.834e-6
0.560, -4.164e-6, -2.876e-6
0.565, -4.440e-6, -2.920e-6
0.570, -4.456e-6, -2.965e-6
0.575, -4.727e-6, -3.012e-6
0.580, -4.729e-6, -3.059e-6
0.585, -5.010e-6, -3.109e-6
0.590, -5.019e-6, -3.160e-6
0.595, -5.271e-6, -3.212e-6
0.600, -5.251e-6, -3.265e-6
0.605, -5.516e-6, -3.320e-6
0.610, -5.493e-6, -3.375e-6
0.615, -5.754e-6, -3.432e-6
0.620, -5.717e-6, -3.490e-6
0.625, -5.935e-6, -3.549e-6
0.630, -5.877e-6, -3.608e-6
0.635, -6.087e-6, -3.669e-6
0.640, -6.036e-6, -3.729e-6
0.645, -6.228e-6, -3.791e-6
0.650, -6.132e-6, -3.852e-6
0.655, -6.317e-6, -3.916e-6
0.660, -6.219e-6, -3.978e-6
0.665, -6.372e-6, -4.042e-6
0.670, -6.276e-6, -4.104e-6
0.675, -6.440e-6, -4.169e-6
0.680, -6.315e-6, -4.232e-6
0.685, -6.485e-6, -4.297e-6
0.690, -6.358e-6, -4.360e-6
0.695, -6.512e-6, -4.425e-6
0.700, -6.377e-6, -4.489e-6
0.705, -6.526e-6, -4.554e-6
0.710, -6.407e-6, -4.619e-6
0.715, -6.554e-6, -4.684e-6
0.720, -6.435e-6, -4.748e-6
0.725, -6.565e-6, -4.814e-6
0.730, -6.447e-6, -4.879e-6
0.735, -6.577e-6, -4.944e-6
0.740, -6.458e-6, -5.009e-6
0.745, -6.588e-6, -5.075e-6
0.750, -6.478e-6, -5.140e-6
0.755, -6.581e-6, -5.205e-6
0.760, -6.463e-6, -5.270e-6
0.765, -6.575e-6, -5.336e-6
0.770, -6.440e-6, -5.400e-6
0.775, -6.547e-6, -5.466e-6
0.780, -6.425e-6, -5.530e-6
0.785, -6.516e-6, -5.595e-6
0.790, -6.384e-6, -5.659e-6
0.795, -6.497e-6, -5.724e-6
0.800, -6.370e-6, -5.788e-6
0.805, -6.471e-6, -5.852e-6
0.810, -6.347e-6, -5.916e-6
0.815, -6.444e-6, -5.980e-6
0.820, -6.307e-6, -6.043e-6
0.825, -6.423e-6, -6.107e-6
0.830, -6.311e-6, -6.171e-6
0.835, -6.407e-6, -6.235e-6
0.840, -6.310e-6, -6.298e-6
0.845, -6.423e-6, -6.362e-6
0.850, -6.322e-6, -6.425e-6
0.855, -6.429e-6, -6.489e-6
0.860, -6.336e-6, -6.553e-6
0.865, -6.449e-6, -6.617e-6
0.870, -6.350e-6, -6.681e-6
0.875, -6.468e-6, -6.745e-6
0.880, -6.387e-6, -6.809e-6
0.885, -6.500e-6, -6.874e-6
0.890, -6.435e-6, -6.939e-6
0.895, -6.549e-6, -7.004e-6
0.900, -6.480e-6, -7.069e-6
0.905, -6.591e-6, -7.135e-6
0.910, -6.523e-6, -7.200e-6
0.915, -6.639e-6, -7.267e-6
0.920, -6.581e-6, -7.332e-6
0.925, -6.693e-6, -7.399e-6
0.930, -6.631e-6, -7.466e-6
0.935, -6.734e-6, -7.533e-6
0.940, -6.683e-6, -7.600e-6
0.945, -6.785e-6, -7.668e-6
0.950, -6.735e-6, -7.735e-6
0.955, -6.846e-6, -7.803e-6
0.960, -6.771e-6, -7.871e-6
0.965, -6.891e-6, -7.940e-6
0.970, -6.831e-6, -8.008e-6
0.975, -6.937e-6, -8.078e-6
0.980, -6.880e-6, -8.147e-6
0.985, -6.980e-6, -8.216e-6
0.990, -6.925e-6, -8.286e-6
0.995, -7.018e-6, -8.356e-6
1.000, -6.972e-6, -8.425e-6
1.005, -7.067e-6, -8.496e-6
1.010, -7.000e-6, -8.566e-6
1.015, -7.099e-6, -8.637e-6
1.020, -7.043e-6, -8.708e-6
1.025, -7.137e-6, -8.779e-6
1.030, -7.081e-6, -8.850e-6
1.035, -7.168e-6, -8.921e-6
1.040, -7.109e-6, -8.993e-6
1.045, -7.202e-6, -9.065e-6
1.050, -7.144e-6, -9.136e-6
1.055, -7.240e-6, -9.208e-6
1.060, -7.176e-6, -9.280e-6
1.065, -7.268e-6, -9.353e-6
1.070, -7.210e-6, -9.425e-6
1.075, -7.293e-6, -9.498e-6
1.080, -7.239e-6, -9.570e-6
1.085, -7.331e-6, -9.644e-6
1.090, -7.271e-6, -9.716e-6
1.095, -7.363e-6, -9.790e-6
1.100, -7.314e-6, -9.863e-6
1.105, -7.398e-6, -9.937e-6
1.110, -7.354e-6, -1.001e-5
1.115, -7.432e-6, -1.008e-5
1.120, -7.385e-6, -1.016e-5
1.125, -7.484e-6, -1.023e-5
1.130, -7.437e-6, -1.031e-5
1.135, -7.527e-6, -1.038e-5
1.140, -7.484e-6, -1.046e-5
1.145, -7.580e-6, -1.053e-5
1.150, -6.602e-6, -1.060e-5

Segment 8:
1.145, -5.080e-6, -1.065e-5
1.140, -4.077e-6, -1.069e-5
1.135, -3.429e-6, -1.073e-5
1.130, -2.822e-6, -1.075e-5
1.125, -2.435e-6, -1.078e-5
1.120, -2.020e-6, -1.080e-5
1.115, -1.782e-6, -1.082e-5
1.110, -1.465e-6, -1.083e-5
1.105, -1.306e-6, -1.084e-5
1.100, -1.070e-6, -1.085e-5
1.095, -9.683e-7, -1.086e-5
1.090, -7.763e-7, -1.087e-5
1.085, -7.159e-7, -1.088e-5
1.080, -5.545e-7, -1.088e-5
1.075, -5.132e-7, -1.089e-5
1.070, -3.783e-7, -1.089e-5
1.065, -3.616e-7, -1.090e-5
1.060, -2.376e-7, -1.090e-5
1.055, -2.323e-7, -1.090e-5
1.050, -1.085e-7, -1.090e-5
1.045, -1.146e-7, -1.090e-5
1.040, -7.637e-9, -1.090e-5
1.035, -2.919e-8, -1.090e-5
1.030, 7.127e-8, -1.090e-5
1.025, 5.381e-8, -1.090e-5
1.020, 1.466e-7, -1.090e-5
1.015, 1.187e-7, -1.090e-5
1.010, 2.073e-7, -1.090e-5
1.005, 1.838e-7, -1.090e-5
1.000, 2.825e-7, -1.089e-5
0.995, 2.399e-7, -1.089e-5
0.990, 3.207e-7, -1.089e-5
0.985, 2.890e-7, -1.089e-5
0.980, 3.703e-7, -1.088e-5
0.975, 3.306e-7, -1.088e-5
0.970, 4.118e-7, -1.087e-5
0.965, 3.730e-7, -1.087e-5
0.960, 4.501e-7, -1.087e-5
0.955, 4.128e-7, -1.086e-5
0.950, 4.938e-7, -1.086e-5
0.945, 4.499e-7, -1.085e-5
0.940, 5.322e-7, -1.085e-5
0.935, 4.864e-7, -1.084e-5
0.930, 5.706e-7, -1.084e-5
0.925, 5.264e-7, -1.083e-5
0.920, 6.072e-7, -1.083e-5
0.915, 5.614e-7, -1.082e-5
0.910, 6.487e-7, -1.081e-5
0.905, 5.937e-7, -1.081e-5
0.900, 6.814e-7, -1.080e-5
0.895, 6.415e-7, -1.079e-5
0.890, 7.179e-7, -1.079e-5
0.885, 6.784e-7, -1.078e-5
0.880, 7.507e-7, -1.077e-5
0.875, 7.068e-7, -1.077e-5
0.870, 7.868e-7, -1.076e-5
0.865, 7.448e-7, -1.075e-5
0.860, 8.254e-7, -1.074e-5
0.855, 7.823e-7, -1.073e-5
0.850, 8.697e-7, -1.073e-5
0.845, 8.293e-7, -1.072e-5
0.840, 9.121e-7, -1.071e-5
0.835, 8.685e-7, -1.070e-5
0.830, 9.551e-7, -1.069e-5
0.825, 9.109e-7, -1.068e-5
0.820, 9.862e-7, -1.067e-5
0.815, 9.543e-7, -1.066e-5
0.810, 1.059e-6, -1.065e-5
0.805, 1.005e-6, -1.064e-5
0.800, 1.092e-6, -1.063e-5
0.795, 1.069e-6, -1.062e-5
0.790, 1.150e-6, -1.061e-5
0.785, 1.107e-6, -1.060e-5
0.780, 1.202e-6, -1.058e-5
0.775, 1.168e-6, -1.057e-5
0.770, 1.262e-6, -1.056e-5
0.765, 1.224e-6, -1.055e-5
0.760, 1.323e-6, -1.053e-5
0.755, 1.284e-6, -1.052e-5
0.750, 1.400e-6, -1.051e-5
0.745, 1.361e-6, -1.049e-5
0.740, 1.487e-6, -1.048e-5
0.735, 1.457e-6, -1.046e-5
0.730, 1.560e-6, -1.045e-5
0.725, 1.530e-6, -1.043e-5
0.720, 1.643e-6, -1.042e-5
0.715, 1.618e-6, -1.040e-5
0.710, 1.729e-6, -1.038e-5
0.705, 1.708e-6, -1.037e-5
0.700, 1.827e-6, -1.035e-5
0.695, 1.812e-6, -1.033e-5
0.690, 1.934e-6, -1.031e-5
0.685, 1.913e-6, -1.029e-5
0.680, 2.045e-6, -1.027e-5
0.675, 2.033e-6, -1.025e-5
0.670, 2.165e-6, -1.023e-5
0.665, 2.159e-6, -1.021e-5
0.660, 2.300e-6, -1.019e-5
0.655, 2.298e-6, -1.016e-5
0.650, 2.449e-6, -1.014e-5
0.645, 2.450e-6, -1.011e-5
0.640, 2.610e-6, -1.009e-5
0.635, 2.624e-6, -1.006e-5
0.630, 2.778e-6, -1.003e-5
0.625, 2.798e-6, -1.001e-5
0.620, 2.976e-6, -9.975e-6
0.615, 3.007e-6, -9.945e-6
0.610, 3.186e-6, -9.913e-6
0.605, 3.230e-6, -9.881e-6
0.600, 3.429e-6, -9.847e-6
0.595, 3.478e-6, -9.812e-6
0.590, 3.684e-6, -9.775e-6
0.585, 3.753e-6, -9.738e-6
0.580, 3.976e-6, -9.698e-6
0.575, 4.053e-6, -9.657e-6
0.570, 4.294e-6, -9.614e-6
0.565, 4.390e-6, -9.570e-6
0.560, 4.664e-6, -9.524e-6
0.555, 4.785e-6, -9.476e-6
0.550, 5.063e-6, -9.425e-6
0.545, 5.206e-6, -9.373e-6
0.540, 5.511e-6, -9.318e-6
0.535, 5.681e-6, -9.261e-6
0.530, 6.013e-6, -9.201e-6
0.525, 6.212e-6, -9.139e-6
0.520, 6.571e-6, -9.073e-6
0.515, 6.790e-6, -9.006e-6
0.510, 7.184e-6, -8.934e-6
0.505, 7.432e-6, -8.859e-6
0.500, 7.859e-6, -8.781e-6
0.495, 8.135e-6, -8.699e-6
0.490, 8.579e-6, -8.614e-6
0.485, 8.886e-6, -8.525e-6
0.480, 9.350e-6, -8.431e-6
0.475, 9.665e-6, -8.335e-6
0.470, 1.014e-5, -8.233e-6
0.465, 1.047e-5, -8.129e-6
0.460, 1.095e-5, -8.019e-6
0.455, 1.128e-5, -7.906e-6
0.450, 1.173e-5, -7.789e-6
0.445, 1.203e-5, -7.669e-6
0.440, 1.247e-5, -7.544e-6
0.435, 1.272e-5, -7.417e-6
0.430, 1.308e-5, -7.286e-6
0.425, 1.325e-5, -7.153e-6
0.420, 1.352e-5, -7.018e-6
0.415, 1.359e-5, -6.882e-6
0.410, 1.373e-5, -6.745e-6
0.405, 1.370e-5, -6.608e-6
0.400, 1.376e-5, -6.470e-6
0.395, 1.361e-5, -6.334e-6
0.390, 1.354e-5, -6.199e-6
0.385, 1.327e-5, -6.066e-6
0.380, 1.309e-5, -5.935e-6
0.375, 1.271e-5, -5.808e-6
0.370, 1.242e-5, -5.684e-6
0.365, 1.196e-5, -5.564e-6
0.360, 1.160e-5, -5.448e-6
0.355, 1.110e-5, -5.337e-6
0.350, 1.069e-5, -5.230e-6
0.345, 1.016e-5, -5.129e-6
0.340, 9.753e-6, -5.031e-6
0.335, 9.232e-6, -4.939e-6
0.330, 8.838e-6, -4.851e-6
0.325, 8.333e-6, -4.767e-6
0.320, 7.956e-6, -4.688e-6
0.315, 7.472e-6, -4.613e-6
0.310, 7.129e-6, -4.542e-6
0.305, 6.711e-6, -4.475e-6
0.300, 6.418e-6, -4.410e-6
0.295, 6.011e-6, -4.350e-6
0.290, 5.753e-6, -4.293e-6
0.285, 5.409e-6, -4.239e-6
0.280, 5.186e-6, -4.187e-6
0.275, 4.881e-6, -4.138e-6
0.270, 4.687e-6, -4.091e-6
0.265, 4.397e-6, -4.047e-6
0.260, 4.235e-6, -4.005e-6
0.255, 3.995e-6, -3.965e-6
0.250, 3.860e-6, -3.926e-6
0.245, 3.643e-6, -3.890e-6
0.240, 3.530e-6, -3.855e-6
0.235, 3.333e-6, -3.821e-6
0.230, 3.242e-6, -3.789e-6
0.225, 3.058e-6, -3.758e-6
0.220, 2.984e-6, -3.728e-6
0.215, 2.811e-6, -3.700e-6
0.210, 2.744e-6, -3.673e-6
0.205, 2.600e-6, -3.647e-6
0.200, 2.533e-6, -3.622e-6
0.195, 2.385e-6, -3.598e-6
0.190, 2.342e-6, -3.574e-6
0.185, 2.215e-6, -3.552e-6
0.180, 2.171e-6, -3.530e-6
0.175, 2.041e-6, -3.510e-6
0.170, 2.015e-6, -3.490e-6
0.165, 1.891e-6, -3.471e-6
0.160, 1.878e-6, -3.452e-6
0.155, 1.766e-6, -3.435e-6
0.150, 1.753e-6, -3.417e-6
0.145, 1.653e-6, -3.400e-6
0.140, 1.651e-6, -3.384e-6
0.135, 1.556e-6, -3.368e-6
0.130, 1.560e-6, -3.353e-6
0.125, 1.469e-6, -3.338e-6
0.120, 1.484e-6, -3.323e-6
0.115, 1.378e-6, -3.310e-6
0.110, 1.414e-6, -3.295e-6
0.105, 1.321e-6, -3.282e-6
0.100, 1.352e-6, -3.269e-6
0.095, 1.276e-6, -3.256e-6
0.090, 1.313e-6, -3.243e-6
0.085, 1.241e-6, -3.230e-6
0.080, 1.289e-6, -3.217e-6
0.075, 1.225e-6, -3.205e-6
0.070, 1.275e-6, -3.192e-6
0.065, 1.220e-6, -3.180e-6
0.060, 1.288e-6, -3.167e-6
0.055, 1.237e-6, -3.155e-6
0.050, 1.317e-6, -3.142e-6
0.045, 1.275e-6, -3.129e-6
0.040, 1.368e-6, -3.115e-6
0.035, 1.333e-6, -3.102e-6
0.030, 1.476e-6, -3.087e-6
0.025, 1.457e-6, -3.073e-6
0.020, 1.600e-6, -3.057e-6
0.015, 1.577e-6, -3.041e-6
0.010, 1.768e-6, -3.023e-6
0.005, 1.762e-6, -3.006e-6
0.000, 1.981e-6, -2.986e-6
-0.005, 2.007e-6, -2.966e-6
-0.010, 2.310e-6, -2.943e-6
-0.015, 2.352e-6, -2.919e-6
-0.020, 2.743e-6, -2.892e-6
-0.025, 2.834e-6, -2.863e-6
-0.030, 3.321e-6, -2.830e-6
-0.035, 3.437e-6, -2.796e-6
-0.040, 3.996e-6, -2.756e-6
-0.045, 4.113e-6, -2.715e-6
-0.050, 4.710e-6, -2.668e-6
-0.055, 4.763e-6, -2.620e-6
-0.060, 5.312e-6, -2.567e-6
-0.065, 5.269e-6, -2.514e-6
-0.070, 5.776e-6, -2.456e-6
-0.075, 5.645e-6, -2.400e-6
-0.080, 6.072e-6, -2.339e-6
-0.085, 5.859e-6, -2.281e-6
-0.090, 6.235e-6, -2.218e-6
-0.095, 5.979e-6, -2.159e-6
-0.100, 6.347e-6, -2.095e-6
-0.105, 6.051e-6, -2.035e-6
-0.110, 6.387e-6, -1.971e-6
-0.115, 6.036e-6, -1.910e-6
-0.120, 6.377e-6, -1.847e-6
-0.125, 6.075e-6, -1.786e-6
-0.130, 6.415e-6, -1.722e-6
-0.135, 6.134e-6, -1.660e-6
-0.140, 6.515e-6, -1.595e-6
-0.145, 6.285e-6, -1.532e-6
-0.150, 6.760e-6, -1.465e-6
-0.155, 6.625e-6, -1.398e-6
-0.160, 7.199e-6, -1.326e-6
-0.165, 7.172e-6, -1.255e-6
-0.170, 7.871e-6, -1.176e-6
-0.175, 7.931e-6, -1.097e-6
-0.180, 8.728e-6, -1.009e-6
-0.185, 8.831e-6, -9.211e-7
-0.190, 9.672e-6, -8.244e-7
-0.195, 9.766e-6, -7.268e-7
-0.200, 1.060e-5, -6.208e-7
-0.205, 1.060e-5, -5.148e-7
-0.210, 1.134e-5, -4.014e-7
-0.215, 1.132e-5, -2.882e-7
-0.220, 1.197e-5, -1.684e-7
-0.225, 1.182e-5, -5.023e-8
-0.230, 1.240e-5, 7.373e-8
-0.235, 1.207e-5, 1.944e-7
-0.240, 1.250e-5, 3.194e-7
-0.245, 1.208e-5, 4.402e-7
-0.250, 1.245e-5, 5.648e-7
-0.255, 1.198e-5, 6.845e-7
-0.260, 1.225e-5, 8.070e-7
-0.265, 1.179e-5, 9.250e-7
-0.270, 1.209e-5, 1.046e-6
-0.275, 1.172e-5, 1.163e-6
-0.280, 7.770e-6, 1.241e-6

Segment 9:
-0.275, -1.290e-6, 1.228e-6
-0.270, -3.174e-6, 1.196e-6
-0.265, -4.799e-6, 1.148e-6
-0.260, -5.312e-6, 1.095e-6
-0.255, -6.321e-6, 1.032e-6
-0.250, -6.523e-6, 9.665e-7
-0.245, -7.335e-6, 8.932e-7
-0.240, -7.358e-6, 8.196e-7
-0.235, -8.086e-6, 7.387e-7
-0.230, -8.050e-6, 6.582e-7
-0.225, -8.635e-6, 5.719e-7
-0.220, -8.425e-6, 4.876e-7
-0.215, -8.898e-6, 3.986e-7
-0.210, -8.559e-6, 3.130e-7
-0.205, -8.941e-6, 2.236e-7
-0.200, -8.494e-6, 1.387e-7
-0.195, -8.798e-6, 5.072e-8
-0.190, -8.306e-6, -3.234e-8
-0.185, -8.578e-6, -1.181e-7
-0.180, -8.060e-6, -1.987e-7
-0.175, -8.173e-6, -2.805e-7
-0.170, -7.438e-6, -3.548e-7
-0.165, -7.415e-6, -4.290e-7
-0.160, -6.713e-6, -4.961e-7
-0.155, -6.711e-6, -5.632e-7
-0.150, -6.094e-6, -6.242e-7
-0.145, -6.219e-6, -6.864e-7
-0.140, -5.705e-6, -7.434e-7
-0.135, -5.912e-6, -8.025e-7
-0.130, -5.536e-6, -8.579e-7
-0.125, -5.791e-6, -9.158e-7
-0.120, -5.500e-6, -9.708e-7
-0.115, -5.817e-6, -1.029e-6
-0.110, -5.555e-6, -1.085e-6
-0.105, -5.918e-6, -1.144e-6
-0.100, -5.710e-6, -1.201e-6
-0.095, -6.085e-6, -1.262e-6
-0.090, -5.876e-6, -1.320e-6
-0.085, -6.315e-6, -1.384e-6
-0.080, -6.122e-6, -1.445e-6
-0.075, -6.627e-6, -1.511e-6
-0.070, -6.453e-6, -1.576e-6
-0.065, -6.932e-6, -1.645e-6
-0.060, -6.724e-6, -1.712e-6
-0.055, -7.128e-6, -1.783e-6
-0.050, -6.751e-6, -1.851e-6
-0.045, -6.923e-6, -1.920e-6
-0.040, -6.261e-6, -1.983e-6
-0.035, -6.100e-6, -2.044e-6
-0.030, -5.238e-6, -2.096e-6
-0.025, -4.934e-6, -2.145e-6
-0.020, -4.079e-6, -2.186e-6
-0.015, -3.816e-6, -2.224e-6
-0.010, -3.180e-6, -2.256e-6
-0.005, -3.014e-6, -2.286e-6
-0.000, -2.526e-6, -2.312e-6
0.005, -2.452e-6, -2.336e-6
0.010, -2.097e-6, -2.357e-6
0.015, -2.062e-6, -2.378e-6
0.020, -1.788e-6, -2.396e-6
0.025, -1.778e-6, -2.413e-6
0.030, -1.540e-6, -2.429e-6
0.035, -1.534e-6, -2.444e-6
0.040, -1.347e-6, -2.458e-6
0.045, -1.355e-6, -2.471e-6
0.050, -1.191e-6, -2.483e-6
0.055, -1.213e-6, -2.495e-6
0.060, -1.073e-6, -2.506e-6
0.065, -1.095e-6, -2.517e-6
0.070, -9.811e-7, -2.527e-6
0.075, -1.013e-6, -2.537e-6
0.080, -9.023e-7, -2.546e-6
0.085, -9.377e-7, -2.555e-6
0.090, -8.514e-7, -2.564e-6
0.095, -8.894e-7, -2.573e-6
0.100, -8.257e-7, -2.581e-6
0.105, -8.655e-7, -2.590e-6
0.110, -7.970e-7, -2.598e-6
0.115, -8.349e-7, -2.606e-6
0.120, -7.783e-7, -2.614e-6
0.125, -8.286e-7, -2.622e-6
0.130, -7.697e-7, -2.630e-6
0.135, -8.160e-7, -2.638e-6
0.140, -7.496e-7, -2.645e-6
0.145, -8.026e-7, -2.653e-6
0.150, -7.451e-7, -2.661e-6
0.155, -7.944e-7, -2.669e-6
0.160, -7.396e-7, -2.676e-6
0.165, -7.912e-7, -2.684e-6
0.170, -7.415e-7, -2.691e-6
0.175, -7.874e-7, -2.699e-6
0.180, -7.404e-7, -2.707e-6
0.185, -7.895e-7, -2.715e-6
0.190, -7.388e-7, -2.722e-6
0.195, -7.872e-7, -2.730e-6
0.200, -7.384e-7, -2.737e-6
0.205, -7.885e-7, -2.745e-6
0.210, -7.382e-7, -2.753e-6
0.215, -7.870e-7, -2.760e-6
0.220, -7.396e-7, -2.768e-6
0.225, -7.882e-7, -2.776e-6
0.230, -7.425e-7, -2.783e-6
0.235, -7.888e-7, -2.791e-6
0.240, -7.420e-7, -2.798e-6
0.245, -7.911e-7, -2.806e-6
0.250, -7.414e-7, -2.814e-6
0.255, -7.907e-7, -2.822e-6
0.260, -7.422e-7, -2.829e-6
0.265, -7.971e-7, -2.837e-6
0.270, -7.440e-7, -2.844e-6
0.275, -8.038e-7, -2.852e-6
0.280, -7.512e-7, -2.860e-6
0.285, -8.076e-7, -2.868e-6
0.290, -7.530e-7, -2.876e-6
0.295, -8.111e-7, -2.884e-6
0.300, -7.622e-7, -2.891e-6
0.305, -8.217e-7, -2.900e-6
0.310, -7.676e-7, -2.907e-6
0.315, -8.270e-7, -2.916e-6
0.320, -7.773e-7, -2.923e-6
0.325, -8.315e-7, -2.932e-6
0.330, -7.861e-7, -2.939e-6
0.335, -8.357e-7, -2.948e-6
0.340, -7.936e-7, -2.956e-6
0.345, -8.483e-7, -2.964e-6
0.350, -8.084e-7, -2.972e-6
0.355, -8.687e-7, -2.981e-6
0.360, -8.289e-7, -2.989e-6
0.365, -8.832e-7, -2.998e-6
0.370, -8.369e-7, -3.006e-6
0.375, -8.988e-7, -3.015e-6
0.380, -8.623e-7, -3.024e-6
0.385, -9.323e-7, -3.033e-6
0.390, -8.891e-7, -3.042e-6
0.395, -9.714e-7, -3.052e-6
0.400, -9.284e-7, -3.061e-6
0.405, -1.010e-6, -3.071e-6
0.410, -9.525e-7, -3.081e-6
0.415, -1.052e-6, -3.091e-6
0.420, -1.021e-6, -3.102e-6
0.425, -1.112e-6, -3.113e-6
0.430, -1.078e-6, -3.124e-6
0.435, -1.177e-6, -3.135e-6
0.440, -1.139e-6, -3.147e-6
0.445, -1.244e-6, -3.159e-6
0.450, -1.220e-6, -3.171e-6
0.455, -1.332e-6, -3.185e-6
0.460, -1.294e-6, -3.198e-6
0.465, -1.436e-6, -3.212e-6
0.470, -1.424e-6, -3.226e-6
0.475, -1.567e-6, -3.242e-6
0.480, -1.563e-6, -3.258e-6
0.485, -1.753e-6, -3.275e-6
0.490, -1.761e-6, -3.293e-6
0.495, -1.962e-6, -3.312e-6
0.500, -1.998e-6, -3.332e-6
0.505, -2.244e-6, -3.355e-6
0.510, -2.317e-6, -3.378e-6
0.515, -2.601e-6, -3.404e-6
0.520, -2.704e-6, -3.431e-6
0.525, -3.011e-6, -3.461e-6
0.530, -3.131e-6, -3.492e-6
0.535, -3.466e-6, -3.527e-6
0.540, -3.583e-6, -3.563e-6
0.545, -3.909e-6, -3.602e-6
0.550, -3.991e-6, -3.642e-6
0.555, -4.297e-6, -3.685e-6
0.560, -4.359e-6, -3.728e-6
0.565, -4.622e-6, -3.775e-6
0.570, -4.659e-6, -3.821e-6
0.575, -4.938e-6, -3.871e-6
0.580, -4.950e-6, -3.920e-6
0.585, -5.193e-6, -3.972e-6
0.590, -5.212e-6, -4.024e-6
0.595, -5.467e-6, -4.079e-6
0.600, -5.473e-6, -4.134e-6
0.605, -5.709e-6, -4.191e-6
0.610, -5.711e-6, -4.248e-6
0.615, -5.938e-6, -4.307e-6
0.620, -5.922e-6, -4.366e-6
0.625, -6.121e-6, -4.428e-6
0.630, -6.090e-6, -4.488e-6
0.635, -6.275e-6, -4.551e-6
0.640, -6.231e-6, -4.614e-6
0.645, -6.390e-6, -4.677e-6
0.650, -6.319e-6, -4.741e-6
0.655, -6.478e-6, -4.805e-6
0.660, -6.391e-6, -4.869e-6
0.665, -6.529e-6, -4.935e-6
0.670, -6.440e-6, -4.999e-6
0.675, -6.580e-6, -5.065e-6
0.680, -6.478e-6, -5.130e-6
0.685, -6.599e-6, -5.196e-6
0.690, -6.505e-6, -5.261e-6
0.695, -6.620e-6, -5.327e-6
0.700, -6.527e-6, -5.392e-6
0.705, -6.626e-6, -5.458e-6
0.710, -6.529e-6, -5.524e-6
0.715, -6.644e-6, -5.590e-6
0.720, -6.546e-6, -5.656e-6
0.725, -6.644e-6, -5.722e-6
0.730, -6.550e-6, -5.787e-6
0.735, -6.646e-6, -5.854e-6
0.740, -6.556e-6, -5.920e-6
0.745, -6.650e-6, -5.986e-6
0.750, -6.552e-6, -6.052e-6
0.755, -6.627e-6, -6.118e-6
0.760, -6.535e-6, -6.183e-6
0.765, -6.606e-6, -6.249e-6
0.770, -6.500e-6, -6.314e-6
0.775, -6.572e-6, -6.380e-6
0.780, -6.462e-6, -6.445e-6
0.785, -6.533e-6, -6.510e-6
0.790, -6.417e-6, -6.574e-6
0.795, -6.489e-6, -6.639e-6
0.800, -6.375e-6, -6.703e-6
0.805, -6.450e-6, -6.767e-6
0.810, -6.341e-6, -6.831e-6
0.815, -6.409e-6, -6.895e-6
0.820, -6.290e-6, -6.958e-6
0.825, -6.369e-6, -7.021e-6
0.830, -6.281e-6, -7.084e-6
0.835, -6.354e-6, -7.148e-6
0.840, -6.271e-6, -7.210e-6
0.845, -6.353e-6, -7.274e-6
0.850, -6.270e-6, -7.337e-6
0.855, -6.345e-6, -7.400e-6
0.860, -6.275e-6, -7.463e-6
0.865, -6.354e-6, -7.526e-6
0.870, -6.284e-6, -7.589e-6
0.875, -6.368e-6, -7.653e-6
0.880, -6.314e-6, -7.716e-6
0.885, -6.397e-6, -7.780e-6
0.890, -6.341e-6, -7.843e-6
0.895, -6.447e-6, -7.908e-6
0.900, -6.377e-6, -7.972e-6
0.905, -6.490e-6, -8.037e-6
0.910, -6.432e-6, -8.101e-6
0.915, -6.526e-6, -8.166e-6
0.920, -6.479e-6, -8.231e-6
0.925, -6.580e-6, -8.297e-6
0.930, -6.531e-6, -8.362e-6
0.935, -6.620e-6, -8.428e-6
0.940, -6.580e-6, -8.494e-6
0.945, -6.672e-6, -8.561e-6
0.950, -6.625e-6, -8.627e-6
0.955, -6.720e-6, -8.694e-6
0.960, -6.672e-6, -8.761e-6
0.965, -6.754e-6, -8.828e-6
0.970, -6.722e-6, -8.896e-6
0.975, -6.801e-6, -8.964e-6
0.980, -6.753e-6, -9.031e-6
0.985, -6.847e-6, -9.100e-6
0.990, -6.800e-6, -9.168e-6
0.995, -6.892e-6, -9.237e-6
1.000, -6.849e-6, -9.305e-6
1.005, -6.932e-6, -9.374e-6
1.010, -6.889e-6, -9.443e-6
1.015, -6.971e-6, -9.513e-6
1.020, -6.923e-6, -9.582e-6
1.025, -7.007e-6, -9.652e-6
1.030, -6.959e-6, -9.722e-6
1.035, -7.033e-6, -9.792e-6
1.040, -6.993e-6, -9.862e-6
1.045, -7.069e-6, -9.933e-6
1.050, -7.031e-6, -1.000e-5
1.055, -7.098e-6, -1.007e-5
1.060, -7.058e-6, -1.014e-5
1.065, -7.128e-6, -1.022e-5
1.070, -7.084e-6, -1.029e-5
1.075, -7.148e-6, -1.036e-5
1.080, -7.116e-6, -1.043e-5
1.085, -7.186e-6, -1.050e-5
1.090, -7.139e-6, -1.057e-5
1.095, -7.219e-6, -1.064e-5
1.100, -7.178e-6, -1.072e-5
1.105, -7.257e-6, -1.079e-5
1.110, -7.222e-6, -1.086e-5
1.115, -7.289e-6, -1.093e-5
1.120, -7.262e-6, -1.101e-5
1.125, -7.338e-6, -1.108e-5
1.130, -7.307e-6, -1.115e-5
1.135, -7.382e-6, -1.123e-5
1.140, -7.359e-6, -1.130e-5
1.145, -7.433e-6, -1.138e-5
1.150, -6.459e-6, -1.144e-5

Segment 10:
1.145, -4.928e-6, -1.149e-5
1.140, -3.952e-6, -1.153e-5
1.135, -3.309e-6, -1.156e-5
1.130, -2.724e-6, -1.159e-5
1.125, -2.340e-6, -1.161e-5
1.120, -1.939e-6, -1.163e-5
1.115, -1.691e-6, -1.165e-5
1.110, -1.393e-6, -1.166e-5
1.105, -1.239e-6, -1.167e-5
1.100, -1.007e-6, -1.168e-5
1.095, -9.089e-7, -1.169e-5
1.090, -7.317e-7, -1.170e-5
1.085, -6.653e-7, -1.171e-5
1.080, -5.011e-7, -1.171e-5
1.075, -4.753e-7, -1.172e-5
1.070, -3.419e-7, -1.172e-5
1.065, -3.271e-7, -1.172e-5
1.060, -2.002e-7, -1.173e-5
1.055, -1.955e-7, -1.173e-5
1.050, -8.456e-8, -1.173e-5
1.045, -9.292e-8, -1.173e-5
1.040, 1.129e-8, -1.173e-5
1.035, 1.734e-9, -1.173e-5
1.030, 9.686e-8, -1.173e-5
1.025, 7.963e-8, -1.173e-5
1.020, 1.727e-7, -1.173e-5
1.015, 1.481e-7, -1.173e-5
1.010, 2.392e-7, -1.172e-5
1.005, 2.047e-7, -1.172e-5
1.000, 2.932e-7, -1.172e-5
0.995, 2.749e-7, -1.171e-5
0.990, 3.380e-7, -1.171e-5
0.985, 3.018e-7, -1.171e-5
0.980, 3.854e-7, -1.170e-5
0.975, 3.459e-7, -1.170e-5
0.970, 4.307e-7, -1.170e-5
0.965, 3.930e-7, -1.169e-5
0.960, 4.708e-7, -1.169e-5
0.955, 4.351e-7, -1.168e-5
0.950, 5.112e-7, -1.168e-5
0.945, 4.729e-7, -1.167e-5
0.940, 5.447e-7, -1.167e-5
0.935, 5.058e-7, -1.166e-5
0.930, 5.831e-7, -1.166e-5
0.925, 5.436e-7, -1.165e-5
0.920, 6.227e-7, -1.165e-5
0.915, 5.823e-7, -1.164e-5
0.910, 6.632e-7, -1.163e-5
0.905, 6.188e-7, -1.163e-5
0.900, 6.890e-7, -1.162e-5
0.895, 6.625e-7, -1.161e-5
0.890, 7.264e-7, -1.161e-5
0.885, 6.871e-7, -1.160e-5
0.880, 7.686e-7, -1.159e-5
0.875, 7.249e-7, -1.158e-5
0.870, 7.967e-7, -1.158e-5
0.865, 7.609e-7, -1.157e-5
0.860, 8.389e-7, -1.156e-5
0.855, 7.999e-7, -1.155e-5
0.850, 8.770e-7, -1.154e-5
0.845, 8.426e-7, -1.154e-5
0.840, 9.213e-7, -1.153e-5
0.835, 8.816e-7, -1.152e-5
0.830, 9.628e-7, -1.151e-5
0.825, 9.266e-7, -1.150e-5
0.820, 9.978e-7, -1.149e-5
0.815, 9.723e-7, -1.148e-5
0.810, 1.066e-6, -1.147e-5
0.805, 1.029e-6, -1.146e-5
0.800, 1.102e-6, -1.145e-5
0.795, 1.076e-6, -1.144e-5
0.790, 1.158e-6, -1.142e-5
0.785, 1.126e-6, -1.141e-5
0.780, 1.209e-6, -1.140e-5
0.775, 1.179e-6, -1.139e-5
0.770, 1.265e-6, -1.138e-5
0.765, 1.241e-6, -1.136e-5
0.760, 1.330e-6, -1.135e-5
0.755, 1.302e-6, -1.134e-5
0.750, 1.405e-6, -1.132e-5
0.745, 1.376e-6, -1.131e-5
0.740, 1.492e-6, -1.130e-5
0.735, 1.468e-6, -1.128e-5
0.730, 1.563e-6, -1.127e-5
0.725, 1.547e-6, -1.125e-5
0.720, 1.651e-6, -1.123e-5
0.715, 1.640e-6, -1.122e-5
0.710, 1.742e-6, -1.120e-5
0.705, 1.722e-6, -1.118e-5
0.700, 1.839e-6, -1.116e-5
0.695, 1.825e-6, -1.115e-5
0.690, 1.940e-6, -1.113e-5
0.685, 1.935e-6, -1.111e-5
0.680, 2.046e-6, -1.109e-5
0.675, 2.053e-6, -1.107e-5
0.670, 2.172e-6, -1.104e-5
0.665, 2.170e-6, -1.102e-5
0.660, 2.297e-6, -1.100e-5
0.655, 2.313e-6, -1.098e-5
0.650, 2.445e-6, -1.095e-5
0.645, 2.468e-6, -1.093e-5
0.640, 2.619e-6, -1.090e-5
0.635, 2.638e-6, -1.087e-5
0.630, 2.781e-6, -1.085e-5
0.625, 2.821e-6, -1.082e-5
0.620, 2.978e-6, -1.079e-5
0.615, 3.030e-6, -1.076e-5
0.610, 3.192e-6, -1.073e-5
0.605, 3.249e-6, -1.069e-5
0.600, 3.425e-6, -1.066e-5
0.595, 3.498e-6, -1.062e-5
0.590, 3.693e-6, -1.059e-5
0.585, 3.778e-6, -1.055e-5
0.580, 3.976e-6, -1.051e-5
0.575, 4.078e-6, -1.047e-5
0.570, 4.300e-6, -1.043e-5
0.565, 4.420e-6, -1.038e-5
0.560, 4.680e-6, -1.034e-5
0.555, 4.826e-6, -1.029e-5
0.550, 5.081e-6, -1.024e-5
0.545, 5.253e-6, -1.018e-5
0.540, 5.535e-6, -1.013e-5
0.535, 5.736e-6, -1.007e-5
0.530, 6.043e-6, -1.001e-5
0.525, 6.278e-6, -9.948e-6
0.520, 6.609e-6, -9.882e-6
0.515, 6.866e-6, -9.813e-6
0.510, 7.236e-6, -9.741e-6
0.505, 7.518e-6, -9.666e-6
0.500, 7.926e-6, -9.587e-6
0.495, 8.243e-6, -9.504e-6
0.490, 8.660e-6, -9.418e-6
0.485, 9.008e-6, -9.328e-6
0.480, 9.454e-6, -9.233e-6
0.475, 9.815e-6, -9.135e-6
0.470, 1.027e-5, -9.032e-6
0.465, 1.064e-5, -8.926e-6
0.460, 1.110e-5, -8.815e-6
0.455, 1.148e-5, -8.700e-6
0.450, 1.192e-5, -8.581e-6
0.445, 1.226e-5, -8.458e-6
0.440, 1.267e-5, -8.331e-6
0.435, 1.298e-5, -8.202e-6
0.430, 1.331e-5, -8.069e-6
0.425, 1.354e-5, -7.933e-6
0.420, 1.378e-5, -7.795e-6
0.415, 1.392e-5, -7.656e-6
0.410, 1.402e-5, -7.516e-6
0.405, 1.403e-5, -7.376e-6
0.400, 1.405e-5, -7.235e-6
0.395, 1.391e-5, -7.096e-6
0.390, 1.380e-5, -6.958e-6
0.385, 1.356e-5, -6.822e-6
0.380, 1.333e-5, -6.689e-6
0.375, 1.297e-5, -6.559e-6
0.370, 1.263e-5, -6.433e-6
0.365, 1.219e-5, -6.311e-6
0.360, 1.178e-5, -6.193e-6
0.355, 1.129e-5, -6.080e-6
0.350, 1.084e-5, -5.972e-6
0.345, 1.031e-5, -5.869e-6
0.340, 9.861e-6, -5.770e-6
0.335, 9.352e-6, -5.677e-6
0.330, 8.914e-6, -5.588e-6
0.325, 8.425e-6, -5.503e-6
0.320, 8.011e-6, -5.423e-6
0.315, 7.541e-6, -5.348e-6
0.310, 7.165e-6, -5.276e-6
0.305, 6.755e-6, -5.209e-6
0.300, 6.428e-6, -5.144e-6
0.295, 6.043e-6, -5.084e-6
0.290, 5.752e-6, -5.026e-6
0.285, 5.420e-6, -4.972e-6
0.280, 5.179e-6, -4.920e-6
0.275, 4.883e-6, -4.872e-6
0.270, 4.670e-6, -4.825e-6
0.265, 4.391e-6, -4.781e-6
0.260, 4.218e-6, -4.739e-6
0.255, 3.983e-6, -4.699e-6
0.250, 3.834e-6, -4.661e-6
0.245, 3.627e-6, -4.624e-6
0.240, 3.499e-6, -4.589e-6
0.235, 3.313e-6, -4.556e-6
0.230, 3.208e-6, -4.524e-6
0.225, 3.039e-6, -4.494e-6
0.220, 2.946e-6, -4.464e-6
0.215, 2.788e-6, -4.436e-6
0.210, 2.712e-6, -4.409e-6
0.205, 2.569e-6, -4.384e-6
0.200, 2.498e-6, -4.359e-6
0.195, 2.362e-6, -4.335e-6
0.190, 2.309e-6, -4.312e-6
0.185, 2.183e-6, -4.290e-6
0.180, 2.134e-6, -4.269e-6
0.175, 2.016e-6, -4.249e-6
0.170, 1.979e-6, -4.229e-6
0.165, 1.866e-6, -4.210e-6
0.160, 1.843e-6, -4.192e-6
0.155, 1.734e-6, -4.174e-6
0.150, 1.714e-6, -4.157e-6
0.145, 1.623e-6, -4.141e-6
0.140, 1.610e-6, -4.125e-6
0.135, 1.522e-6, -4.110e-6
0.130, 1.522e-6, -4.095e-6
0.125, 1.450e-6, -4.080e-6
0.120, 1.451e-6, -4.066e-6
0.115, 1.357e-6, -4.052e-6
0.110, 1.366e-6, -4.038e-6
0.105, 1.302e-6, -4.025e-6
0.100, 1.317e-6, -4.012e-6
0.095, 1.260e-6, -3.999e-6
0.090, 1.278e-6, -3.987e-6
0.085, 1.225e-6, -3.974e-6
0.080, 1.261e-6, -3.962e-6
0.075, 1.212e-6, -3.950e-6
0.070, 1.256e-6, -3.937e-6
0.065, 1.205e-6, -3.925e-6
0.060, 1.262e-6, -3.912e-6
0.055, 1.224e-6, -3.900e-6
0.050, 1.295e-6, -3.887e-6
0.045, 1.267e-6, -3.875e-6
0.040, 1.347e-6, -3.861e-6
0.035, 1.328e-6, -3.848e-6
0.030, 1.459e-6, -3.833e-6
0.025, 1.448e-6, -3.819e-6
0.020, 1.581e-6, -3.803e-6
0.015, 1.576e-6, -3.787e-6
0.010, 1.750e-6, -3.770e-6
0.005, 1.770e-6, -3.752e-6
0.000, 1.966e-6, -3.732e-6
-0.005, 2.033e-6, -3.712e-6
-0.010, 2.309e-6, -3.689e-6
-0.015, 2.396e-6, -3.665e-6
-0.020, 2.759e-6, -3.637e-6
-0.025, 2.930e-6, -3.608e-6
-0.030, 3.345e-6, -3.575e-6
-0.035, 3.538e-6, -3.539e-6
-0.040, 4.048e-6, -3.499e-6
-0.045, 4.257e-6, -3.456e-6
-0.050, 4.771e-6, -3.409e-6
-0.055, 4.942e-6, -3.359e-6
-0.060, 5.390e-6, -3.305e-6
-0.065, 5.443e-6, -3.251e-6
-0.070, 5.837e-6, -3.192e-6
-0.075, 5.791e-6, -3.135e-6
-0.080, 6.085e-6, -3.074e-6
-0.085, 5.964e-6, -3.014e-6
-0.090, 6.219e-6, -2.952e-6
-0.095, 6.046e-6, -2.891e-6
-0.100, 6.280e-6, -2.829e-6
-0.105, 6.092e-6, -2.768e-6
-0.110, 6.289e-6, -2.705e-6
-0.115, 6.060e-6, -2.644e-6
-0.120, 6.286e-6, -2.581e-6
-0.125, 6.046e-6, -2.521e-6
-0.130, 6.301e-6, -2.458e-6
-0.135, 6.132e-6, -2.397e-6
-0.140, 6.400e-6, -2.333e-6
-0.145, 6.312e-6, -2.269e-6
-0.150, 6.664e-6, -2.203e-6
-0.155, 6.652e-6, -2.136e-6
-0.160, 7.138e-6, -2.065e-6
-0.165, 7.211e-6, -1.993e-6
-0.170, 7.784e-6, -1.915e-6
-0.175, 8.023e-6, -1.835e-6
-0.180, 8.683e-6, -1.748e-6
-0.185, 8.966e-6, -1.658e-6
-0.190, 9.608e-6, -1.562e-6
-0.195, 9.890e-6, -1.463e-6
-0.200, 1.052e-5, -1.358e-6
-0.205, 1.074e-5, -1.251e-6
-0.210, 1.130e-5, -1.138e-6
-0.215, 1.144e-5, -1.023e-6
-0.220, 1.187e-5, -9.045e-7
-0.225, 1.193e-5, -7.852e-7
-0.230, 1.229e-5, -6.623e-7
-0.235, 1.215e-5, -5.409e-7
-0.240, 1.235e-5, -4.173e-7
-0.245, 1.213e-5, -2.960e-7
-0.250, 1.227e-5, -1.733e-7
-0.255, 1.199e-5, -5.349e-8
-0.260, 1.209e-5, 6.740e-8
-0.265, 1.182e-5, 1.856e-7
-0.270, 1.191e-5, 3.047e-7
-0.275, 1.172e-5, 4.218e-7
-0.280, 7.581e-6, 4.977e-7
