Nov. 18, 2020   13:48:02
Cyclic Voltammetry
File: c:\documents and settings\administrator\×ÀÃæ\wyz\empty02.txt
Data Source:  Experiment
Instrument Model:  CHI600B
Header: 
Note: 

Init E (V) = 0.65
High E (V) = 1.15
Low E (V) = -0.28
Init P/N = P
Scan Rate (V/s) = 0.2
Segment = 10
Sample Interval (V) = 0.005
Quiet Time (sec) = 2
Sensitivity (A/V) = 1e-5

Segment 1:

Segment 2:
Ep = 0.415V
ip = 2.987e-6A
Ah = 1.310e-6C

Segment 3:

Segment 4:
Ep = 0.415V
ip = 3.319e-6A
Ah = 1.521e-6C

Segment 5:

Segment 6:
Ep = 0.415V
ip = 3.432e-6A
Ah = 1.602e-6C

Ep = -0.245V
ip = 2.439e-6A
Ah = 7.292e-7C

Segment 7:

Segment 8:
Ep = 0.415V
ip = 3.450e-6A
Ah = 1.610e-6C

Ep = -0.245V
ip = 2.539e-6A
Ah = 7.852e-7C

Segment 9:

Segment 10:
Ep = 0.415V
ip = 3.675e-6A
Ah = 1.692e-6C

Ep = -0.235V
ip = 2.584e-6A
Ah = 6.605e-7C

Potential/V, Current/A, Charge/C

Segment 1:
0.655, -6.995e-7, -1.749e-8
0.660, -7.777e-7, -3.693e-8
0.665, -8.434e-7, -5.802e-8
0.670, -9.273e-7, -8.120e-8
0.675, -1.006e-6, -1.063e-7
0.680, -1.092e-6, -1.336e-7
0.685, -1.177e-6, -1.631e-7
0.690, -1.279e-6, -1.951e-7
0.695, -1.371e-6, -2.293e-7
0.700, -1.472e-6, -2.661e-7
0.705, -1.562e-6, -3.052e-7
0.710, -1.665e-6, -3.468e-7
0.715, -1.767e-6, -3.910e-7
0.720, -1.858e-6, -4.374e-7
0.725, -1.939e-6, -4.859e-7
0.730, -2.030e-6, -5.366e-7
0.735, -2.100e-6, -5.891e-7
0.740, -2.175e-6, -6.435e-7
0.745, -2.244e-6, -6.996e-7
0.750, -2.311e-6, -7.574e-7
0.755, -2.365e-6, -8.165e-7
0.760, -2.423e-6, -8.771e-7
0.765, -2.470e-6, -9.388e-7
0.770, -2.519e-6, -1.002e-6
0.775, -2.567e-6, -1.066e-6
0.780, -2.609e-6, -1.131e-6
0.785, -2.647e-6, -1.197e-6
0.790, -2.690e-6, -1.265e-6
0.795, -2.723e-6, -1.333e-6
0.800, -2.759e-6, -1.402e-6
0.805, -2.788e-6, -1.471e-6
0.810, -2.826e-6, -1.542e-6
0.815, -2.857e-6, -1.613e-6
0.820, -2.883e-6, -1.686e-6
0.825, -2.913e-6, -1.758e-6
0.830, -2.941e-6, -1.832e-6
0.835, -2.967e-6, -1.906e-6
0.840, -3.001e-6, -1.981e-6
0.845, -3.031e-6, -2.057e-6
0.850, -3.061e-6, -2.133e-6
0.855, -3.088e-6, -2.211e-6
0.860, -3.119e-6, -2.289e-6
0.865, -3.147e-6, -2.367e-6
0.870, -3.177e-6, -2.447e-6
0.875, -3.209e-6, -2.527e-6
0.880, -3.234e-6, -2.608e-6
0.885, -3.270e-6, -2.689e-6
0.890, -3.297e-6, -2.772e-6
0.895, -3.334e-6, -2.855e-6
0.900, -3.367e-6, -2.939e-6
0.905, -3.399e-6, -3.024e-6
0.910, -3.434e-6, -3.110e-6
0.915, -3.464e-6, -3.197e-6
0.920, -3.498e-6, -3.284e-6
0.925, -3.528e-6, -3.372e-6
0.930, -3.565e-6, -3.462e-6
0.935, -3.597e-6, -3.552e-6
0.940, -3.631e-6, -3.642e-6
0.945, -3.670e-6, -3.734e-6
0.950, -3.701e-6, -3.827e-6
0.955, -3.735e-6, -3.920e-6
0.960, -3.771e-6, -4.014e-6
0.965, -3.804e-6, -4.109e-6
0.970, -3.839e-6, -4.205e-6
0.975, -3.871e-6, -4.302e-6
0.980, -3.910e-6, -4.400e-6
0.985, -3.942e-6, -4.498e-6
0.990, -3.984e-6, -4.598e-6
0.995, -4.017e-6, -4.698e-6
1.000, -4.053e-6, -4.800e-6
1.005, -4.086e-6, -4.902e-6
1.010, -4.122e-6, -5.005e-6
1.015, -4.154e-6, -5.109e-6
1.020, -4.193e-6, -5.214e-6
1.025, -4.223e-6, -5.319e-6
1.030, -4.262e-6, -5.426e-6
1.035, -4.288e-6, -5.533e-6
1.040, -4.323e-6, -5.641e-6
1.045, -4.351e-6, -5.750e-6
1.050, -4.386e-6, -5.859e-6
1.055, -4.415e-6, -5.970e-6
1.060, -4.448e-6, -6.081e-6
1.065, -4.473e-6, -6.193e-6
1.070, -4.505e-6, -6.305e-6
1.075, -4.527e-6, -6.419e-6
1.080, -4.557e-6, -6.533e-6
1.085, -4.579e-6, -6.647e-6
1.090, -4.612e-6, -6.762e-6
1.095, -4.636e-6, -6.878e-6
1.100, -4.662e-6, -6.995e-6
1.105, -4.681e-6, -7.112e-6
1.110, -4.709e-6, -7.230e-6
1.115, -4.729e-6, -7.348e-6
1.120, -4.753e-6, -7.467e-6
1.125, -4.773e-6, -7.586e-6
1.130, -4.802e-6, -7.706e-6
1.135, -4.823e-6, -7.827e-6
1.140, -4.850e-6, -7.948e-6
1.145, -4.867e-6, -8.069e-6
1.150, -4.306e-6, -8.177e-6

Segment 2:
1.145, -3.536e-6, -8.266e-6
1.140, -2.986e-6, -8.340e-6
1.135, -2.546e-6, -8.404e-6
1.130, -2.206e-6, -8.459e-6
1.125, -1.912e-6, -8.507e-6
1.120, -1.671e-6, -8.549e-6
1.115, -1.460e-6, -8.585e-6
1.110, -1.294e-6, -8.617e-6
1.105, -1.145e-6, -8.646e-6
1.100, -1.021e-6, -8.672e-6
1.095, -9.076e-7, -8.694e-6
1.090, -8.152e-7, -8.715e-6
1.085, -7.239e-7, -8.733e-6
1.080, -6.530e-7, -8.749e-6
1.075, -5.843e-7, -8.764e-6
1.070, -5.258e-7, -8.777e-6
1.065, -4.722e-7, -8.789e-6
1.060, -4.251e-7, -8.799e-6
1.055, -3.747e-7, -8.809e-6
1.050, -3.448e-7, -8.817e-6
1.045, -3.070e-7, -8.825e-6
1.040, -2.738e-7, -8.832e-6
1.035, -2.340e-7, -8.838e-6
1.030, -2.151e-7, -8.843e-6
1.025, -1.814e-7, -8.848e-6
1.020, -1.674e-7, -8.852e-6
1.015, -1.434e-7, -8.855e-6
1.010, -1.230e-7, -8.858e-6
1.005, -1.088e-7, -8.861e-6
1.000, -7.429e-8, -8.863e-6
0.995, -5.884e-8, -8.864e-6
0.990, -4.325e-8, -8.866e-6
0.985, -2.473e-8, -8.866e-6
0.980, -1.088e-8, -8.866e-6
0.975, 9.277e-9, -8.866e-6
0.970, 1.589e-8, -8.866e-6
0.965, 2.901e-8, -8.865e-6
0.960, 3.922e-8, -8.864e-6
0.955, 5.950e-8, -8.863e-6
0.950, 6.495e-8, -8.861e-6
0.945, 7.598e-8, -8.859e-6
0.940, 8.576e-8, -8.857e-6
0.935, 1.006e-7, -8.854e-6
0.930, 1.079e-7, -8.852e-6
0.925, 1.190e-7, -8.849e-6
0.920, 1.274e-7, -8.846e-6
0.915, 1.375e-7, -8.842e-6
0.910, 1.464e-7, -8.838e-6
0.905, 1.602e-7, -8.834e-6
0.900, 1.642e-7, -8.830e-6
0.895, 1.736e-7, -8.826e-6
0.890, 1.794e-7, -8.822e-6
0.885, 1.937e-7, -8.817e-6
0.880, 2.001e-7, -8.812e-6
0.875, 2.145e-7, -8.806e-6
0.870, 2.180e-7, -8.801e-6
0.865, 2.314e-7, -8.795e-6
0.860, 2.363e-7, -8.789e-6
0.855, 2.493e-7, -8.783e-6
0.850, 2.608e-7, -8.776e-6
0.845, 2.656e-7, -8.770e-6
0.840, 2.774e-7, -8.763e-6
0.835, 2.888e-7, -8.756e-6
0.830, 2.948e-7, -8.748e-6
0.825, 3.054e-7, -8.741e-6
0.820, 3.121e-7, -8.733e-6
0.815, 3.227e-7, -8.725e-6
0.810, 3.313e-7, -8.716e-6
0.805, 3.484e-7, -8.708e-6
0.800, 3.554e-7, -8.699e-6
0.795, 3.693e-7, -8.690e-6
0.790, 3.754e-7, -8.680e-6
0.785, 3.943e-7, -8.670e-6
0.780, 4.047e-7, -8.660e-6
0.775, 4.168e-7, -8.650e-6
0.770, 4.240e-7, -8.639e-6
0.765, 4.472e-7, -8.628e-6
0.760, 4.551e-7, -8.617e-6
0.755, 4.685e-7, -8.605e-6
0.750, 4.812e-7, -8.593e-6
0.745, 5.033e-7, -8.580e-6
0.740, 5.145e-7, -8.568e-6
0.735, 5.308e-7, -8.554e-6
0.730, 5.450e-7, -8.541e-6
0.725, 5.618e-7, -8.527e-6
0.720, 5.801e-7, -8.512e-6
0.715, 6.044e-7, -8.497e-6
0.710, 6.145e-7, -8.482e-6
0.705, 6.424e-7, -8.466e-6
0.700, 6.583e-7, -8.449e-6
0.695, 6.834e-7, -8.432e-6
0.690, 6.990e-7, -8.415e-6
0.685, 7.216e-7, -8.397e-6
0.680, 7.440e-7, -8.378e-6
0.675, 7.698e-7, -8.359e-6
0.670, 7.961e-7, -8.339e-6
0.665, 8.258e-7, -8.318e-6
0.660, 8.526e-7, -8.297e-6
0.655, 8.842e-7, -8.275e-6
0.650, 9.058e-7, -8.252e-6
0.645, 9.443e-7, -8.228e-6
0.640, 9.725e-7, -8.204e-6
0.635, 1.008e-6, -8.179e-6
0.630, 1.047e-6, -8.153e-6
0.625, 1.082e-6, -8.126e-6
0.620, 1.120e-6, -8.098e-6
0.615, 1.171e-6, -8.068e-6
0.610, 1.210e-6, -8.038e-6
0.605, 1.256e-6, -8.007e-6
0.600, 1.306e-6, -7.974e-6
0.595, 1.359e-6, -7.940e-6
0.590, 1.423e-6, -7.905e-6
0.585, 1.489e-6, -7.867e-6
0.580, 1.548e-6, -7.829e-6
0.575, 1.618e-6, -7.788e-6
0.570, 1.674e-6, -7.746e-6
0.565, 1.746e-6, -7.703e-6
0.560, 1.821e-6, -7.657e-6
0.555, 1.903e-6, -7.610e-6
0.550, 1.976e-6, -7.560e-6
0.545, 2.071e-6, -7.508e-6
0.540, 2.158e-6, -7.454e-6
0.535, 2.257e-6, -7.398e-6
0.530, 2.356e-6, -7.339e-6
0.525, 2.468e-6, -7.277e-6
0.520, 2.577e-6, -7.213e-6
0.515, 2.699e-6, -7.146e-6
0.510, 2.821e-6, -7.075e-6
0.505, 2.956e-6, -7.001e-6
0.500, 3.086e-6, -6.924e-6
0.495, 3.230e-6, -6.843e-6
0.490, 3.370e-6, -6.759e-6
0.485, 3.523e-6, -6.671e-6
0.480, 3.672e-6, -6.579e-6
0.475, 3.830e-6, -6.483e-6
0.470, 3.978e-6, -6.384e-6
0.465, 4.138e-6, -6.280e-6
0.460, 4.284e-6, -6.173e-6
0.455, 4.436e-6, -6.062e-6
0.450, 4.597e-6, -5.948e-6
0.445, 4.738e-6, -5.829e-6
0.440, 4.860e-6, -5.708e-6
0.435, 4.978e-6, -5.583e-6
0.430, 5.072e-6, -5.456e-6
0.425, 5.150e-6, -5.328e-6
0.420, 5.202e-6, -5.198e-6
0.415, 5.241e-6, -5.067e-6
0.410, 5.233e-6, -4.936e-6
0.405, 5.226e-6, -4.805e-6
0.400, 5.191e-6, -4.675e-6
0.395, 5.138e-6, -4.547e-6
0.390, 5.050e-6, -4.421e-6
0.385, 4.959e-6, -4.297e-6
0.380, 4.836e-6, -4.176e-6
0.375, 4.705e-6, -4.058e-6
0.370, 4.538e-6, -3.945e-6
0.365, 4.378e-6, -3.835e-6
0.360, 4.205e-6, -3.730e-6
0.355, 4.042e-6, -3.629e-6
0.350, 3.858e-6, -3.533e-6
0.345, 3.690e-6, -3.440e-6
0.340, 3.517e-6, -3.352e-6
0.335, 3.349e-6, -3.269e-6
0.330, 3.186e-6, -3.189e-6
0.325, 3.033e-6, -3.113e-6
0.320, 2.872e-6, -3.041e-6
0.315, 2.733e-6, -2.973e-6
0.310, 2.594e-6, -2.908e-6
0.305, 2.467e-6, -2.847e-6
0.300, 2.340e-6, -2.788e-6
0.295, 2.227e-6, -2.732e-6
0.290, 2.115e-6, -2.680e-6
0.285, 2.019e-6, -2.629e-6
0.280, 1.921e-6, -2.581e-6
0.275, 1.834e-6, -2.535e-6
0.270, 1.744e-6, -2.492e-6
0.265, 1.671e-6, -2.450e-6
0.260, 1.595e-6, -2.410e-6
0.255, 1.529e-6, -2.372e-6
0.250, 1.462e-6, -2.335e-6
0.245, 1.385e-6, -2.301e-6
0.240, 1.323e-6, -2.267e-6
0.235, 1.272e-6, -2.236e-6
0.230, 1.221e-6, -2.205e-6
0.225, 1.173e-6, -2.176e-6
0.220, 1.127e-6, -2.148e-6
0.215, 1.092e-6, -2.120e-6
0.210, 1.045e-6, -2.094e-6
0.205, 1.006e-6, -2.069e-6
0.200, 9.687e-7, -2.045e-6
0.195, 9.364e-7, -2.021e-6
0.190, 8.990e-7, -1.999e-6
0.185, 8.766e-7, -1.977e-6
0.180, 8.471e-7, -1.956e-6
0.175, 8.225e-7, -1.935e-6
0.170, 7.939e-7, -1.915e-6
0.165, 7.736e-7, -1.896e-6
0.160, 7.482e-7, -1.877e-6
0.155, 7.257e-7, -1.859e-6
0.150, 7.037e-7, -1.842e-6
0.145, 6.882e-7, -1.824e-6
0.140, 6.743e-7, -1.808e-6
0.135, 6.570e-7, -1.791e-6
0.130, 6.472e-7, -1.775e-6
0.125, 6.299e-7, -1.759e-6
0.120, 6.111e-7, -1.744e-6
0.115, 6.055e-7, -1.729e-6
0.110, 5.909e-7, -1.714e-6
0.105, 5.857e-7, -1.699e-6
0.100, 5.722e-7, -1.685e-6
0.095, 5.676e-7, -1.671e-6
0.090, 5.579e-7, -1.657e-6
0.085, 5.577e-7, -1.643e-6
0.080, 5.549e-7, -1.629e-6
0.075, 5.563e-7, -1.615e-6
0.070, 5.497e-7, -1.602e-6
0.065, 5.553e-7, -1.588e-6
0.060, 5.552e-7, -1.574e-6
0.055, 5.613e-7, -1.560e-6
0.050, 5.612e-7, -1.546e-6
0.045, 5.738e-7, -1.531e-6
0.040, 5.832e-7, -1.517e-6
0.035, 6.025e-7, -1.502e-6
0.030, 6.134e-7, -1.486e-6
0.025, 6.370e-7, -1.470e-6
0.020, 6.573e-7, -1.454e-6
0.015, 6.869e-7, -1.437e-6
0.010, 7.086e-7, -1.419e-6
0.005, 7.483e-7, -1.400e-6
0.000, 7.860e-7, -1.381e-6
-0.005, 8.420e-7, -1.360e-6
-0.010, 8.944e-7, -1.337e-6
-0.015, 9.614e-7, -1.313e-6
-0.020, 1.039e-6, -1.287e-6
-0.025, 1.128e-6, -1.259e-6
-0.030, 1.220e-6, -1.229e-6
-0.035, 1.326e-6, -1.196e-6
-0.040, 1.442e-6, -1.159e-6
-0.045, 1.570e-6, -1.120e-6
-0.050, 1.671e-6, -1.078e-6
-0.055, 1.773e-6, -1.034e-6
-0.060, 1.874e-6, -9.873e-7
-0.065, 1.958e-6, -9.383e-7
-0.070, 2.037e-6, -8.874e-7
-0.075, 2.107e-6, -8.347e-7
-0.080, 2.176e-6, -7.803e-7
-0.085, 2.245e-6, -7.242e-7
-0.090, 2.294e-6, -6.668e-7
-0.095, 2.350e-6, -6.081e-7
-0.100, 2.411e-6, -5.478e-7
-0.105, 2.457e-6, -4.864e-7
-0.110, 2.481e-6, -4.244e-7
-0.115, 2.508e-6, -3.616e-7
-0.120, 2.554e-6, -2.978e-7
-0.125, 2.586e-6, -2.332e-7
-0.130, 2.623e-6, -1.676e-7
-0.135, 2.654e-6, -1.012e-7
-0.140, 2.700e-6, -3.371e-8
-0.145, 2.769e-6, 3.551e-8
-0.150, 2.826e-6, 1.062e-7
-0.155, 2.909e-6, 1.789e-7
-0.160, 3.004e-6, 2.540e-7
-0.165, 3.140e-6, 3.325e-7
-0.170, 3.268e-6, 4.142e-7
-0.175, 3.398e-6, 4.991e-7
-0.180, 3.573e-6, 5.885e-7
-0.185, 3.761e-6, 6.825e-7
-0.190, 3.903e-6, 7.801e-7
-0.195, 4.053e-6, 8.814e-7
-0.200, 4.215e-6, 9.868e-7
-0.205, 4.360e-6, 1.096e-6
-0.210, 4.525e-6, 1.209e-6
-0.215, 4.654e-6, 1.325e-6
-0.220, 4.786e-6, 1.445e-6
-0.225, 4.931e-6, 1.568e-6
-0.230, 5.030e-6, 1.694e-6
-0.235, 5.080e-6, 1.821e-6
-0.240, 5.153e-6, 1.950e-6
-0.245, 5.212e-6, 2.080e-6
-0.250, 5.251e-6, 2.211e-6
-0.255, 5.264e-6, 2.343e-6
-0.260, 5.301e-6, 2.475e-6
-0.265, 5.356e-6, 2.609e-6
-0.270, 5.397e-6, 2.744e-6
-0.275, 5.479e-6, 2.881e-6
-0.280, 2.035e-6, 2.932e-6

Segment 3:
-0.275, -5.573e-7, 2.918e-6
-0.270, -1.342e-6, 2.885e-6
-0.265, -1.809e-6, 2.839e-6
-0.260, -2.149e-6, 2.786e-6
-0.255, -2.371e-6, 2.726e-6
-0.250, -2.552e-6, 2.663e-6
-0.245, -2.694e-6, 2.595e-6
-0.240, -2.821e-6, 2.525e-6
-0.235, -2.891e-6, 2.452e-6
-0.230, -2.989e-6, 2.378e-6
-0.225, -3.043e-6, 2.302e-6
-0.220, -3.088e-6, 2.224e-6
-0.215, -3.087e-6, 2.147e-6
-0.210, -3.109e-6, 2.070e-6
-0.205, -3.109e-6, 1.992e-6
-0.200, -3.098e-6, 1.914e-6
-0.195, -3.050e-6, 1.838e-6
-0.190, -3.029e-6, 1.762e-6
-0.185, -2.997e-6, 1.688e-6
-0.180, -2.956e-6, 1.614e-6
-0.175, -2.884e-6, 1.542e-6
-0.170, -2.781e-6, 1.472e-6
-0.165, -2.701e-6, 1.404e-6
-0.160, -2.618e-6, 1.339e-6
-0.155, -2.507e-6, 1.276e-6
-0.150, -2.445e-6, 1.215e-6
-0.145, -2.405e-6, 1.155e-6
-0.140, -2.347e-6, 1.096e-6
-0.135, -2.301e-6, 1.039e-6
-0.130, -2.297e-6, 9.814e-7
-0.125, -2.285e-6, 9.243e-7
-0.120, -2.281e-6, 8.673e-7
-0.115, -2.257e-6, 8.109e-7
-0.110, -2.275e-6, 7.540e-7
-0.105, -2.292e-6, 6.967e-7
-0.100, -2.301e-6, 6.392e-7
-0.095, -2.298e-6, 5.817e-7
-0.090, -2.307e-6, 5.240e-7
-0.085, -2.340e-6, 4.655e-7
-0.080, -2.353e-6, 4.067e-7
-0.075, -2.358e-6, 3.478e-7
-0.070, -2.384e-6, 2.882e-7
-0.065, -2.399e-6, 2.282e-7
-0.060, -2.430e-6, 1.675e-7
-0.055, -2.417e-6, 1.070e-7
-0.050, -2.385e-6, 4.741e-8
-0.045, -2.333e-6, -1.091e-8
-0.040, -2.233e-6, -6.674e-8
-0.035, -2.076e-6, -1.186e-7
-0.030, -1.919e-6, -1.666e-7
-0.025, -1.739e-6, -2.101e-7
-0.020, -1.570e-6, -2.493e-7
-0.015, -1.402e-6, -2.844e-7
-0.010, -1.265e-6, -3.160e-7
-0.005, -1.155e-6, -3.449e-7
-0.000, -1.051e-6, -3.712e-7
0.005, -9.653e-7, -3.953e-7
0.010, -8.913e-7, -4.176e-7
0.015, -8.287e-7, -4.383e-7
0.020, -7.760e-7, -4.577e-7
0.025, -7.215e-7, -4.757e-7
0.030, -6.766e-7, -4.926e-7
0.035, -6.390e-7, -5.086e-7
0.040, -6.043e-7, -5.237e-7
0.045, -5.683e-7, -5.379e-7
0.050, -5.363e-7, -5.513e-7
0.055, -5.177e-7, -5.643e-7
0.060, -4.932e-7, -5.766e-7
0.065, -4.744e-7, -5.885e-7
0.070, -4.620e-7, -6.000e-7
0.075, -4.467e-7, -6.112e-7
0.080, -4.368e-7, -6.221e-7
0.085, -4.210e-7, -6.326e-7
0.090, -4.166e-7, -6.430e-7
0.095, -4.102e-7, -6.533e-7
0.100, -4.073e-7, -6.635e-7
0.105, -3.917e-7, -6.733e-7
0.110, -3.908e-7, -6.830e-7
0.115, -3.825e-7, -6.926e-7
0.120, -3.821e-7, -7.022e-7
0.125, -3.755e-7, -7.115e-7
0.130, -3.776e-7, -7.210e-7
0.135, -3.745e-7, -7.304e-7
0.140, -3.740e-7, -7.397e-7
0.145, -3.692e-7, -7.489e-7
0.150, -3.699e-7, -7.582e-7
0.155, -3.693e-7, -7.674e-7
0.160, -3.714e-7, -7.767e-7
0.165, -3.660e-7, -7.858e-7
0.170, -3.662e-7, -7.950e-7
0.175, -3.674e-7, -8.042e-7
0.180, -3.711e-7, -8.135e-7
0.185, -3.667e-7, -8.226e-7
0.190, -3.672e-7, -8.318e-7
0.195, -3.671e-7, -8.410e-7
0.200, -3.714e-7, -8.503e-7
0.205, -3.677e-7, -8.595e-7
0.210, -3.677e-7, -8.687e-7
0.215, -3.693e-7, -8.779e-7
0.220, -3.722e-7, -8.872e-7
0.225, -3.692e-7, -8.964e-7
0.230, -3.726e-7, -9.057e-7
0.235, -3.727e-7, -9.151e-7
0.240, -3.738e-7, -9.244e-7
0.245, -3.723e-7, -9.337e-7
0.250, -3.770e-7, -9.431e-7
0.255, -3.765e-7, -9.525e-7
0.260, -3.789e-7, -9.620e-7
0.265, -3.766e-7, -9.714e-7
0.270, -3.842e-7, -9.810e-7
0.275, -3.845e-7, -9.907e-7
0.280, -3.903e-7, -1.000e-6
0.285, -3.855e-7, -1.010e-6
0.290, -3.938e-7, -1.020e-6
0.295, -3.931e-7, -1.030e-6
0.300, -4.029e-7, -1.040e-6
0.305, -4.021e-7, -1.050e-6
0.310, -4.075e-7, -1.060e-6
0.315, -4.081e-7, -1.070e-6
0.320, -4.159e-7, -1.081e-6
0.325, -4.164e-7, -1.091e-6
0.330, -4.220e-7, -1.102e-6
0.335, -4.241e-7, -1.112e-6
0.340, -4.268e-7, -1.123e-6
0.345, -4.284e-7, -1.134e-6
0.350, -4.382e-7, -1.145e-6
0.355, -4.395e-7, -1.156e-6
0.360, -4.519e-7, -1.167e-6
0.365, -4.508e-7, -1.178e-6
0.370, -4.595e-7, -1.190e-6
0.375, -4.663e-7, -1.201e-6
0.380, -4.712e-7, -1.213e-6
0.385, -4.762e-7, -1.225e-6
0.390, -4.938e-7, -1.237e-6
0.395, -4.977e-7, -1.250e-6
0.400, -5.069e-7, -1.262e-6
0.405, -5.152e-7, -1.275e-6
0.410, -5.162e-7, -1.288e-6
0.415, -5.384e-7, -1.302e-6
0.420, -5.580e-7, -1.316e-6
0.425, -5.619e-7, -1.330e-6
0.430, -5.731e-7, -1.344e-6
0.435, -5.920e-7, -1.359e-6
0.440, -6.116e-7, -1.374e-6
0.445, -6.195e-7, -1.390e-6
0.450, -6.444e-7, -1.406e-6
0.455, -6.621e-7, -1.422e-6
0.460, -6.845e-7, -1.439e-6
0.465, -7.052e-7, -1.457e-6
0.470, -7.321e-7, -1.475e-6
0.475, -7.603e-7, -1.494e-6
0.480, -7.919e-7, -1.514e-6
0.485, -8.273e-7, -1.535e-6
0.490, -8.681e-7, -1.556e-6
0.495, -9.088e-7, -1.579e-6
0.500, -9.622e-7, -1.603e-6
0.505, -1.008e-6, -1.628e-6
0.510, -1.073e-6, -1.655e-6
0.515, -1.130e-6, -1.683e-6
0.520, -1.199e-6, -1.713e-6
0.525, -1.259e-6, -1.745e-6
0.530, -1.327e-6, -1.778e-6
0.535, -1.398e-6, -1.813e-6
0.540, -1.466e-6, -1.850e-6
0.545, -1.520e-6, -1.888e-6
0.550, -1.579e-6, -1.927e-6
0.555, -1.640e-6, -1.968e-6
0.560, -1.703e-6, -2.011e-6
0.565, -1.754e-6, -2.055e-6
0.570, -1.807e-6, -2.100e-6
0.575, -1.861e-6, -2.146e-6
0.580, -1.914e-6, -2.194e-6
0.585, -1.958e-6, -2.243e-6
0.590, -2.011e-6, -2.293e-6
0.595, -2.057e-6, -2.345e-6
0.600, -2.116e-6, -2.398e-6
0.605, -2.149e-6, -2.451e-6
0.610, -2.196e-6, -2.506e-6
0.615, -2.243e-6, -2.562e-6
0.620, -2.292e-6, -2.620e-6
0.625, -2.323e-6, -2.678e-6
0.630, -2.359e-6, -2.737e-6
0.635, -2.394e-6, -2.797e-6
0.640, -2.436e-6, -2.858e-6
0.645, -2.461e-6, -2.919e-6
0.650, -2.487e-6, -2.981e-6
0.655, -2.518e-6, -3.044e-6
0.660, -2.546e-6, -3.108e-6
0.665, -2.560e-6, -3.172e-6
0.670, -2.585e-6, -3.236e-6
0.675, -2.607e-6, -3.302e-6
0.680, -2.630e-6, -3.367e-6
0.685, -2.642e-6, -3.433e-6
0.690, -2.660e-6, -3.500e-6
0.695, -2.673e-6, -3.567e-6
0.700, -2.694e-6, -3.634e-6
0.705, -2.702e-6, -3.702e-6
0.710, -2.716e-6, -3.770e-6
0.715, -2.733e-6, -3.838e-6
0.720, -2.748e-6, -3.907e-6
0.725, -2.753e-6, -3.975e-6
0.730, -2.765e-6, -4.044e-6
0.735, -2.777e-6, -4.114e-6
0.740, -2.792e-6, -4.184e-6
0.745, -2.799e-6, -4.254e-6
0.750, -2.811e-6, -4.324e-6
0.755, -2.815e-6, -4.394e-6
0.760, -2.828e-6, -4.465e-6
0.765, -2.834e-6, -4.536e-6
0.770, -2.844e-6, -4.607e-6
0.775, -2.847e-6, -4.678e-6
0.780, -2.858e-6, -4.750e-6
0.785, -2.864e-6, -4.821e-6
0.790, -2.871e-6, -4.893e-6
0.795, -2.883e-6, -4.965e-6
0.800, -2.896e-6, -5.038e-6
0.805, -2.898e-6, -5.110e-6
0.810, -2.908e-6, -5.183e-6
0.815, -2.923e-6, -5.256e-6
0.820, -2.927e-6, -5.329e-6
0.825, -2.939e-6, -5.402e-6
0.830, -2.949e-6, -5.476e-6
0.835, -2.965e-6, -5.550e-6
0.840, -2.983e-6, -5.625e-6
0.845, -2.997e-6, -5.700e-6
0.850, -3.013e-6, -5.775e-6
0.855, -3.027e-6, -5.851e-6
0.860, -3.049e-6, -5.927e-6
0.865, -3.060e-6, -6.003e-6
0.870, -3.081e-6, -6.080e-6
0.875, -3.096e-6, -6.158e-6
0.880, -3.122e-6, -6.236e-6
0.885, -3.139e-6, -6.314e-6
0.890, -3.160e-6, -6.393e-6
0.895, -3.179e-6, -6.473e-6
0.900, -3.205e-6, -6.553e-6
0.905, -3.227e-6, -6.634e-6
0.910, -3.246e-6, -6.715e-6
0.915, -3.270e-6, -6.797e-6
0.920, -3.294e-6, -6.879e-6
0.925, -3.309e-6, -6.962e-6
0.930, -3.334e-6, -7.045e-6
0.935, -3.355e-6, -7.129e-6
0.940, -3.380e-6, -7.213e-6
0.945, -3.397e-6, -7.298e-6
0.950, -3.420e-6, -7.384e-6
0.955, -3.437e-6, -7.470e-6
0.960, -3.460e-6, -7.556e-6
0.965, -3.480e-6, -7.643e-6
0.970, -3.498e-6, -7.731e-6
0.975, -3.518e-6, -7.819e-6
0.980, -3.541e-6, -7.907e-6
0.985, -3.554e-6, -7.996e-6
0.990, -3.576e-6, -8.085e-6
0.995, -3.590e-6, -8.175e-6
1.000, -3.613e-6, -8.265e-6
1.005, -3.636e-6, -8.356e-6
1.010, -3.646e-6, -8.447e-6
1.015, -3.668e-6, -8.539e-6
1.020, -3.683e-6, -8.631e-6
1.025, -3.693e-6, -8.724e-6
1.030, -3.715e-6, -8.816e-6
1.035, -3.724e-6, -8.910e-6
1.040, -3.742e-6, -9.003e-6
1.045, -3.755e-6, -9.097e-6
1.050, -3.774e-6, -9.191e-6
1.055, -3.786e-6, -9.286e-6
1.060, -3.799e-6, -9.381e-6
1.065, -3.812e-6, -9.476e-6
1.070, -3.828e-6, -9.572e-6
1.075, -3.836e-6, -9.668e-6
1.080, -3.851e-6, -9.764e-6
1.085, -3.863e-6, -9.861e-6
1.090, -3.878e-6, -9.958e-6
1.095, -3.891e-6, -1.005e-5
1.100, -3.907e-6, -1.015e-5
1.105, -3.919e-6, -1.025e-5
1.110, -3.932e-6, -1.035e-5
1.115, -3.944e-6, -1.045e-5
1.120, -3.959e-6, -1.055e-5
1.125, -3.974e-6, -1.065e-5
1.130, -3.988e-6, -1.075e-5
1.135, -4.002e-6, -1.085e-5
1.140, -4.023e-6, -1.095e-5
1.145, -4.036e-6, -1.105e-5
1.150, -3.489e-6, -1.113e-5

Segment 4:
1.145, -2.803e-6, -1.120e-5
1.140, -2.336e-6, -1.126e-5
1.135, -1.974e-6, -1.131e-5
1.130, -1.675e-6, -1.135e-5
1.125, -1.436e-6, -1.139e-5
1.120, -1.245e-6, -1.142e-5
1.115, -1.081e-6, -1.145e-5
1.110, -9.499e-7, -1.147e-5
1.105, -8.322e-7, -1.149e-5
1.100, -7.337e-7, -1.151e-5
1.095, -6.447e-7, -1.153e-5
1.090, -5.716e-7, -1.154e-5
1.085, -5.076e-7, -1.155e-5
1.080, -4.496e-7, -1.157e-5
1.075, -3.931e-7, -1.158e-5
1.070, -3.495e-7, -1.158e-5
1.065, -3.086e-7, -1.159e-5
1.060, -2.723e-7, -1.160e-5
1.055, -2.319e-7, -1.160e-5
1.050, -2.041e-7, -1.161e-5
1.045, -1.765e-7, -1.161e-5
1.040, -1.589e-7, -1.162e-5
1.035, -1.271e-7, -1.162e-5
1.030, -1.105e-7, -1.162e-5
1.025, -7.940e-8, -1.163e-5
1.020, -6.450e-8, -1.163e-5
1.015, -3.805e-8, -1.163e-5
1.010, -2.493e-8, -1.163e-5
1.005, -6.645e-9, -1.163e-5
1.000, 7.502e-9, -1.163e-5
0.995, 2.282e-8, -1.163e-5
0.990, 3.488e-8, -1.163e-5
0.985, 4.735e-8, -1.163e-5
0.980, 5.783e-8, -1.162e-5
0.975, 7.357e-8, -1.162e-5
0.970, 8.261e-8, -1.162e-5
0.965, 9.499e-8, -1.162e-5
0.960, 1.025e-7, -1.162e-5
0.955, 1.185e-7, -1.161e-5
0.950, 1.247e-7, -1.161e-5
0.945, 1.350e-7, -1.161e-5
0.940, 1.405e-7, -1.160e-5
0.935, 1.572e-7, -1.160e-5
0.930, 1.613e-7, -1.159e-5
0.925, 1.721e-7, -1.159e-5
0.920, 1.770e-7, -1.159e-5
0.915, 1.903e-7, -1.158e-5
0.910, 1.968e-7, -1.158e-5
0.905, 2.059e-7, -1.157e-5
0.900, 2.122e-7, -1.157e-5
0.895, 2.276e-7, -1.156e-5
0.890, 2.335e-7, -1.155e-5
0.885, 2.361e-7, -1.155e-5
0.880, 2.470e-7, -1.154e-5
0.875, 2.612e-7, -1.154e-5
0.870, 2.653e-7, -1.153e-5
0.865, 2.756e-7, -1.152e-5
0.860, 2.833e-7, -1.152e-5
0.855, 2.903e-7, -1.151e-5
0.850, 3.012e-7, -1.150e-5
0.845, 3.148e-7, -1.149e-5
0.840, 3.181e-7, -1.148e-5
0.835, 3.291e-7, -1.148e-5
0.830, 3.379e-7, -1.147e-5
0.825, 3.513e-7, -1.146e-5
0.820, 3.537e-7, -1.145e-5
0.815, 3.693e-7, -1.144e-5
0.810, 3.789e-7, -1.143e-5
0.805, 3.929e-7, -1.142e-5
0.800, 4.003e-7, -1.141e-5
0.795, 4.153e-7, -1.140e-5
0.790, 4.254e-7, -1.139e-5
0.785, 4.400e-7, -1.138e-5
0.780, 4.484e-7, -1.137e-5
0.775, 4.645e-7, -1.136e-5
0.770, 4.743e-7, -1.135e-5
0.765, 4.921e-7, -1.133e-5
0.760, 5.017e-7, -1.132e-5
0.755, 5.146e-7, -1.131e-5
0.750, 5.310e-7, -1.129e-5
0.745, 5.512e-7, -1.128e-5
0.740, 5.613e-7, -1.127e-5
0.735, 5.808e-7, -1.125e-5
0.730, 5.946e-7, -1.124e-5
0.725, 6.124e-7, -1.122e-5
0.720, 6.314e-7, -1.121e-5
0.715, 6.532e-7, -1.119e-5
0.710, 6.720e-7, -1.117e-5
0.705, 6.995e-7, -1.116e-5
0.700, 7.120e-7, -1.114e-5
0.695, 7.381e-7, -1.112e-5
0.690, 7.600e-7, -1.110e-5
0.685, 7.879e-7, -1.108e-5
0.680, 8.062e-7, -1.106e-5
0.675, 8.388e-7, -1.104e-5
0.670, 8.632e-7, -1.102e-5
0.665, 8.937e-7, -1.100e-5
0.660, 9.164e-7, -1.097e-5
0.655, 9.502e-7, -1.095e-5
0.650, 9.798e-7, -1.092e-5
0.645, 1.011e-6, -1.090e-5
0.640, 1.054e-6, -1.087e-5
0.635, 1.088e-6, -1.085e-5
0.630, 1.127e-6, -1.082e-5
0.625, 1.175e-6, -1.079e-5
0.620, 1.210e-6, -1.076e-5
0.615, 1.259e-6, -1.073e-5
0.610, 1.307e-6, -1.069e-5
0.605, 1.362e-6, -1.066e-5
0.600, 1.417e-6, -1.062e-5
0.595, 1.487e-6, -1.059e-5
0.590, 1.546e-6, -1.055e-5
0.585, 1.614e-6, -1.051e-5
0.580, 1.674e-6, -1.047e-5
0.575, 1.743e-6, -1.042e-5
0.570, 1.819e-6, -1.038e-5
0.565, 1.895e-6, -1.033e-5
0.560, 1.971e-6, -1.028e-5
0.555, 2.064e-6, -1.023e-5
0.550, 2.151e-6, -1.017e-5
0.545, 2.253e-6, -1.012e-5
0.540, 2.350e-6, -1.006e-5
0.535, 2.462e-6, -9.998e-6
0.530, 2.568e-6, -9.934e-6
0.525, 2.694e-6, -9.867e-6
0.520, 2.816e-6, -9.796e-6
0.515, 2.955e-6, -9.722e-6
0.510, 3.094e-6, -9.645e-6
0.505, 3.243e-6, -9.564e-6
0.500, 3.387e-6, -9.479e-6
0.495, 3.544e-6, -9.391e-6
0.490, 3.701e-6, -9.298e-6
0.485, 3.874e-6, -9.201e-6
0.480, 4.037e-6, -9.100e-6
0.475, 4.202e-6, -8.995e-6
0.470, 4.377e-6, -8.886e-6
0.465, 4.572e-6, -8.772e-6
0.460, 4.727e-6, -8.653e-6
0.455, 4.894e-6, -8.531e-6
0.450, 5.044e-6, -8.405e-6
0.445, 5.187e-6, -8.275e-6
0.440, 5.309e-6, -8.143e-6
0.435, 5.430e-6, -8.007e-6
0.430, 5.521e-6, -7.869e-6
0.425, 5.591e-6, -7.729e-6
0.420, 5.626e-6, -7.588e-6
0.415, 5.646e-6, -7.447e-6
0.410, 5.617e-6, -7.307e-6
0.405, 5.592e-6, -7.167e-6
0.400, 5.525e-6, -7.029e-6
0.395, 5.444e-6, -6.893e-6
0.390, 5.337e-6, -6.759e-6
0.385, 5.211e-6, -6.629e-6
0.380, 5.056e-6, -6.503e-6
0.375, 4.894e-6, -6.380e-6
0.370, 4.715e-6, -6.262e-6
0.365, 4.525e-6, -6.149e-6
0.360, 4.317e-6, -6.041e-6
0.355, 4.127e-6, -5.938e-6
0.350, 3.937e-6, -5.840e-6
0.345, 3.743e-6, -5.746e-6
0.340, 3.558e-6, -5.657e-6
0.335, 3.381e-6, -5.573e-6
0.330, 3.209e-6, -5.493e-6
0.325, 3.048e-6, -5.416e-6
0.320, 2.878e-6, -5.344e-6
0.315, 2.737e-6, -5.276e-6
0.310, 2.598e-6, -5.211e-6
0.305, 2.466e-6, -5.149e-6
0.300, 2.338e-6, -5.091e-6
0.295, 2.223e-6, -5.035e-6
0.290, 2.116e-6, -4.982e-6
0.285, 2.015e-6, -4.932e-6
0.280, 1.916e-6, -4.884e-6
0.275, 1.834e-6, -4.838e-6
0.270, 1.746e-6, -4.795e-6
0.265, 1.674e-6, -4.753e-6
0.260, 1.593e-6, -4.713e-6
0.255, 1.525e-6, -4.675e-6
0.250, 1.462e-6, -4.638e-6
0.245, 1.395e-6, -4.603e-6
0.240, 1.324e-6, -4.570e-6
0.235, 1.270e-6, -4.539e-6
0.230, 1.221e-6, -4.508e-6
0.225, 1.178e-6, -4.479e-6
0.220, 1.128e-6, -4.450e-6
0.215, 1.081e-6, -4.423e-6
0.210, 1.049e-6, -4.397e-6
0.205, 1.003e-6, -4.372e-6
0.200, 9.663e-7, -4.348e-6
0.195, 9.327e-7, -4.325e-6
0.190, 9.019e-7, -4.302e-6
0.185, 8.765e-7, -4.280e-6
0.180, 8.470e-7, -4.259e-6
0.175, 8.217e-7, -4.238e-6
0.170, 7.934e-7, -4.219e-6
0.165, 7.701e-7, -4.199e-6
0.160, 7.467e-7, -4.181e-6
0.155, 7.274e-7, -4.163e-6
0.150, 7.052e-7, -4.145e-6
0.145, 6.991e-7, -4.127e-6
0.140, 6.666e-7, -4.111e-6
0.135, 6.553e-7, -4.094e-6
0.130, 6.458e-7, -4.078e-6
0.125, 6.250e-7, -4.063e-6
0.120, 6.156e-7, -4.047e-6
0.115, 6.065e-7, -4.032e-6
0.110, 5.984e-7, -4.017e-6
0.105, 5.951e-7, -4.002e-6
0.100, 5.769e-7, -3.988e-6
0.095, 5.732e-7, -3.973e-6
0.090, 5.659e-7, -3.959e-6
0.085, 5.625e-7, -3.945e-6
0.080, 5.572e-7, -3.931e-6
0.075, 5.580e-7, -3.917e-6
0.070, 5.577e-7, -3.903e-6
0.065, 5.601e-7, -3.889e-6
0.060, 5.582e-7, -3.875e-6
0.055, 5.633e-7, -3.861e-6
0.050, 5.713e-7, -3.847e-6
0.045, 5.830e-7, -3.833e-6
0.040, 5.906e-7, -3.818e-6
0.035, 6.055e-7, -3.803e-6
0.030, 6.225e-7, -3.787e-6
0.025, 6.412e-7, -3.771e-6
0.020, 6.640e-7, -3.754e-6
0.015, 6.845e-7, -3.737e-6
0.010, 7.269e-7, -3.719e-6
0.005, 7.654e-7, -3.700e-6
0.000, 8.020e-7, -3.680e-6
-0.005, 8.588e-7, -3.658e-6
-0.010, 9.113e-7, -3.636e-6
-0.015, 9.855e-7, -3.611e-6
-0.020, 1.065e-6, -3.584e-6
-0.025, 1.159e-6, -3.555e-6
-0.030, 1.262e-6, -3.524e-6
-0.035, 1.384e-6, -3.489e-6
-0.040, 1.506e-6, -3.452e-6
-0.045, 1.638e-6, -3.411e-6
-0.050, 1.752e-6, -3.367e-6
-0.055, 1.876e-6, -3.320e-6
-0.060, 1.973e-6, -3.271e-6
-0.065, 2.075e-6, -3.219e-6
-0.070, 2.173e-6, -3.165e-6
-0.075, 2.263e-6, -3.108e-6
-0.080, 2.325e-6, -3.050e-6
-0.085, 2.396e-6, -2.990e-6
-0.090, 2.454e-6, -2.929e-6
-0.095, 2.519e-6, -2.866e-6
-0.100, 2.573e-6, -2.801e-6
-0.105, 2.604e-6, -2.736e-6
-0.110, 2.630e-6, -2.670e-6
-0.115, 2.637e-6, -2.604e-6
-0.120, 2.661e-6, -2.538e-6
-0.125, 2.682e-6, -2.471e-6
-0.130, 2.717e-6, -2.403e-6
-0.135, 2.744e-6, -2.334e-6
-0.140, 2.782e-6, -2.265e-6
-0.145, 2.839e-6, -2.194e-6
-0.150, 2.908e-6, -2.121e-6
-0.155, 3.010e-6, -2.046e-6
-0.160, 3.114e-6, -1.968e-6
-0.165, 3.239e-6, -1.887e-6
-0.170, 3.396e-6, -1.802e-6
-0.175, 3.573e-6, -1.713e-6
-0.180, 3.753e-6, -1.619e-6
-0.185, 3.942e-6, -1.520e-6
-0.190, 4.115e-6, -1.418e-6
-0.195, 4.320e-6, -1.310e-6
-0.200, 4.501e-6, -1.197e-6
-0.205, 4.657e-6, -1.081e-6
-0.210, 4.828e-6, -9.599e-7
-0.215, 4.977e-6, -8.355e-7
-0.220, 5.107e-6, -7.078e-7
-0.225, 5.213e-6, -5.775e-7
-0.230, 5.306e-6, -4.449e-7
-0.235, 5.375e-6, -3.105e-7
-0.240, 5.408e-6, -1.753e-7
-0.245, 5.428e-6, -3.962e-8
-0.250, 5.437e-6, 9.632e-8
-0.255, 5.437e-6, 2.323e-7
-0.260, 5.428e-6, 3.680e-7
-0.265, 5.432e-6, 5.037e-7
-0.270, 5.428e-6, 6.394e-7
-0.275, 5.485e-6, 7.766e-7
-0.280, 1.856e-6, 8.230e-7

Segment 5:
-0.275, -7.942e-7, 8.031e-7
-0.270, -1.541e-6, 7.646e-7
-0.265, -2.004e-6, 7.145e-7
-0.260, -2.339e-6, 6.560e-7
-0.255, -2.567e-6, 5.918e-7
-0.250, -2.766e-6, 5.227e-7
-0.245, -2.918e-6, 4.497e-7
-0.240, -3.052e-6, 3.734e-7
-0.235, -3.189e-6, 2.937e-7
-0.230, -3.282e-6, 2.116e-7
-0.225, -3.325e-6, 1.285e-7
-0.220, -3.381e-6, 4.400e-8
-0.215, -3.409e-6, -4.123e-8
-0.210, -3.403e-6, -1.263e-7
-0.205, -3.393e-6, -2.111e-7
-0.200, -3.359e-6, -2.951e-7
-0.195, -3.331e-6, -3.784e-7
-0.190, -3.290e-6, -4.606e-7
-0.185, -3.222e-6, -5.412e-7
-0.180, -3.173e-6, -6.205e-7
-0.175, -3.073e-6, -6.973e-7
-0.170, -2.962e-6, -7.714e-7
-0.165, -2.834e-6, -8.422e-7
-0.160, -2.735e-6, -9.106e-7
-0.155, -2.633e-6, -9.764e-7
-0.150, -2.561e-6, -1.040e-6
-0.145, -2.479e-6, -1.102e-6
-0.140, -2.441e-6, -1.163e-6
-0.135, -2.415e-6, -1.224e-6
-0.130, -2.396e-6, -1.284e-6
-0.125, -2.373e-6, -1.343e-6
-0.120, -2.387e-6, -1.403e-6
-0.115, -2.392e-6, -1.463e-6
-0.110, -2.407e-6, -1.523e-6
-0.105, -2.424e-6, -1.583e-6
-0.100, -2.449e-6, -1.645e-6
-0.095, -2.469e-6, -1.706e-6
-0.090, -2.494e-6, -1.769e-6
-0.085, -2.513e-6, -1.831e-6
-0.080, -2.552e-6, -1.895e-6
-0.075, -2.594e-6, -1.960e-6
-0.070, -2.625e-6, -2.026e-6
-0.065, -2.645e-6, -2.092e-6
-0.060, -2.660e-6, -2.158e-6
-0.055, -2.656e-6, -2.225e-6
-0.050, -2.607e-6, -2.290e-6
-0.045, -2.505e-6, -2.353e-6
-0.040, -2.369e-6, -2.412e-6
-0.035, -2.193e-6, -2.467e-6
-0.030, -1.989e-6, -2.516e-6
-0.025, -1.793e-6, -2.561e-6
-0.020, -1.592e-6, -2.601e-6
-0.015, -1.421e-6, -2.636e-6
-0.010, -1.276e-6, -2.668e-6
-0.005, -1.147e-6, -2.697e-6
-0.000, -1.040e-6, -2.723e-6
0.005, -9.600e-7, -2.747e-6
0.010, -8.807e-7, -2.769e-6
0.015, -8.100e-7, -2.789e-6
0.020, -7.578e-7, -2.808e-6
0.025, -7.043e-7, -2.826e-6
0.030, -6.639e-7, -2.842e-6
0.035, -6.152e-7, -2.858e-6
0.040, -5.856e-7, -2.872e-6
0.045, -5.512e-7, -2.886e-6
0.050, -5.251e-7, -2.899e-6
0.055, -4.962e-7, -2.912e-6
0.060, -4.833e-7, -2.924e-6
0.065, -4.614e-7, -2.935e-6
0.070, -4.467e-7, -2.947e-6
0.075, -4.267e-7, -2.957e-6
0.080, -4.221e-7, -2.968e-6
0.085, -4.092e-7, -2.978e-6
0.090, -4.014e-7, -2.988e-6
0.095, -3.895e-7, -2.998e-6
0.100, -3.898e-7, -3.008e-6
0.105, -3.802e-7, -3.017e-6
0.110, -3.791e-7, -3.027e-6
0.115, -3.690e-7, -3.036e-6
0.120, -3.716e-7, -3.045e-6
0.125, -3.659e-7, -3.054e-6
0.130, -3.674e-7, -3.063e-6
0.135, -3.636e-7, -3.072e-6
0.140, -3.627e-7, -3.082e-6
0.145, -3.604e-7, -3.091e-6
0.150, -3.623e-7, -3.100e-6
0.155, -3.595e-7, -3.109e-6
0.160, -3.602e-7, -3.118e-6
0.165, -3.563e-7, -3.126e-6
0.170, -3.618e-7, -3.136e-6
0.175, -3.579e-7, -3.144e-6
0.180, -3.585e-7, -3.153e-6
0.185, -3.574e-7, -3.162e-6
0.190, -3.609e-7, -3.171e-6
0.195, -3.580e-7, -3.180e-6
0.200, -3.610e-7, -3.189e-6
0.205, -3.581e-7, -3.198e-6
0.210, -3.623e-7, -3.207e-6
0.215, -3.585e-7, -3.216e-6
0.220, -3.617e-7, -3.225e-6
0.225, -3.585e-7, -3.234e-6
0.230, -3.645e-7, -3.243e-6
0.235, -3.611e-7, -3.252e-6
0.240, -3.647e-7, -3.262e-6
0.245, -3.631e-7, -3.271e-6
0.250, -3.670e-7, -3.280e-6
0.255, -3.645e-7, -3.289e-6
0.260, -3.682e-7, -3.298e-6
0.265, -3.665e-7, -3.307e-6
0.270, -3.711e-7, -3.317e-6
0.275, -3.693e-7, -3.326e-6
0.280, -3.750e-7, -3.335e-6
0.285, -3.757e-7, -3.345e-6
0.290, -3.794e-7, -3.354e-6
0.295, -3.769e-7, -3.364e-6
0.300, -3.849e-7, -3.373e-6
0.305, -3.878e-7, -3.383e-6
0.310, -3.922e-7, -3.393e-6
0.315, -3.893e-7, -3.402e-6
0.320, -3.962e-7, -3.412e-6
0.325, -3.960e-7, -3.422e-6
0.330, -4.029e-7, -3.432e-6
0.335, -4.005e-7, -3.442e-6
0.340, -4.078e-7, -3.452e-6
0.345, -4.064e-7, -3.463e-6
0.350, -4.137e-7, -3.473e-6
0.355, -4.137e-7, -3.483e-6
0.360, -4.203e-7, -3.494e-6
0.365, -4.223e-7, -3.504e-6
0.370, -4.255e-7, -3.515e-6
0.375, -4.273e-7, -3.526e-6
0.380, -4.384e-7, -3.537e-6
0.385, -4.424e-7, -3.548e-6
0.390, -4.542e-7, -3.559e-6
0.395, -4.554e-7, -3.570e-6
0.400, -4.655e-7, -3.582e-6
0.405, -4.714e-7, -3.594e-6
0.410, -4.739e-7, -3.606e-6
0.415, -4.896e-7, -3.618e-6
0.420, -5.092e-7, -3.631e-6
0.425, -5.153e-7, -3.644e-6
0.430, -5.292e-7, -3.657e-6
0.435, -5.408e-7, -3.670e-6
0.440, -5.499e-7, -3.684e-6
0.445, -5.691e-7, -3.698e-6
0.450, -5.874e-7, -3.713e-6
0.455, -5.984e-7, -3.728e-6
0.460, -6.214e-7, -3.743e-6
0.465, -6.436e-7, -3.760e-6
0.470, -6.707e-7, -3.776e-6
0.475, -6.916e-7, -3.794e-6
0.480, -7.280e-7, -3.812e-6
0.485, -7.631e-7, -3.831e-6
0.490, -8.029e-7, -3.851e-6
0.495, -8.414e-7, -3.872e-6
0.500, -8.956e-7, -3.894e-6
0.505, -9.530e-7, -3.918e-6
0.510, -1.016e-6, -3.944e-6
0.515, -1.074e-6, -3.970e-6
0.520, -1.147e-6, -3.999e-6
0.525, -1.216e-6, -4.030e-6
0.530, -1.288e-6, -4.062e-6
0.535, -1.360e-6, -4.096e-6
0.540, -1.431e-6, -4.132e-6
0.545, -1.501e-6, -4.169e-6
0.550, -1.566e-6, -4.208e-6
0.555, -1.620e-6, -4.249e-6
0.560, -1.684e-6, -4.291e-6
0.565, -1.745e-6, -4.334e-6
0.570, -1.807e-6, -4.380e-6
0.575, -1.853e-6, -4.426e-6
0.580, -1.908e-6, -4.474e-6
0.585, -1.961e-6, -4.523e-6
0.590, -2.015e-6, -4.573e-6
0.595, -2.062e-6, -4.625e-6
0.600, -2.105e-6, -4.677e-6
0.605, -2.164e-6, -4.731e-6
0.610, -2.210e-6, -4.787e-6
0.615, -2.248e-6, -4.843e-6
0.620, -2.291e-6, -4.900e-6
0.625, -2.326e-6, -4.958e-6
0.630, -2.366e-6, -5.017e-6
0.635, -2.395e-6, -5.077e-6
0.640, -2.431e-6, -5.138e-6
0.645, -2.456e-6, -5.199e-6
0.650, -2.484e-6, -5.261e-6
0.655, -2.498e-6, -5.324e-6
0.660, -2.518e-6, -5.387e-6
0.665, -2.545e-6, -5.450e-6
0.670, -2.564e-6, -5.515e-6
0.675, -2.571e-6, -5.579e-6
0.680, -2.590e-6, -5.644e-6
0.685, -2.603e-6, -5.709e-6
0.690, -2.627e-6, -5.774e-6
0.695, -2.630e-6, -5.840e-6
0.700, -2.643e-6, -5.906e-6
0.705, -2.653e-6, -5.973e-6
0.710, -2.668e-6, -6.039e-6
0.715, -2.675e-6, -6.106e-6
0.720, -2.685e-6, -6.173e-6
0.725, -2.697e-6, -6.241e-6
0.730, -2.708e-6, -6.308e-6
0.735, -2.712e-6, -6.376e-6
0.740, -2.729e-6, -6.444e-6
0.745, -2.737e-6, -6.513e-6
0.750, -2.743e-6, -6.581e-6
0.755, -2.744e-6, -6.650e-6
0.760, -2.752e-6, -6.719e-6
0.765, -2.756e-6, -6.788e-6
0.770, -2.766e-6, -6.857e-6
0.775, -2.762e-6, -6.926e-6
0.780, -2.770e-6, -6.995e-6
0.785, -2.777e-6, -7.065e-6
0.790, -2.784e-6, -7.134e-6
0.795, -2.787e-6, -7.204e-6
0.800, -2.792e-6, -7.274e-6
0.805, -2.795e-6, -7.343e-6
0.810, -2.805e-6, -7.414e-6
0.815, -2.814e-6, -7.484e-6
0.820, -2.816e-6, -7.554e-6
0.825, -2.828e-6, -7.625e-6
0.830, -2.834e-6, -7.696e-6
0.835, -2.846e-6, -7.767e-6
0.840, -2.858e-6, -7.839e-6
0.845, -2.870e-6, -7.910e-6
0.850, -2.890e-6, -7.983e-6
0.855, -2.893e-6, -8.055e-6
0.860, -2.904e-6, -8.127e-6
0.865, -2.925e-6, -8.201e-6
0.870, -2.936e-6, -8.274e-6
0.875, -2.949e-6, -8.348e-6
0.880, -2.963e-6, -8.422e-6
0.885, -2.981e-6, -8.496e-6
0.890, -3.002e-6, -8.571e-6
0.895, -3.012e-6, -8.647e-6
0.900, -3.034e-6, -8.723e-6
0.905, -3.049e-6, -8.799e-6
0.910, -3.069e-6, -8.875e-6
0.915, -3.082e-6, -8.953e-6
0.920, -3.103e-6, -9.030e-6
0.925, -3.119e-6, -9.108e-6
0.930, -3.136e-6, -9.186e-6
0.935, -3.147e-6, -9.265e-6
0.940, -3.162e-6, -9.344e-6
0.945, -3.180e-6, -9.424e-6
0.950, -3.200e-6, -9.504e-6
0.955, -3.214e-6, -9.584e-6
0.960, -3.230e-6, -9.665e-6
0.965, -3.240e-6, -9.746e-6
0.970, -3.260e-6, -9.827e-6
0.975, -3.262e-6, -9.909e-6
0.980, -3.277e-6, -9.991e-6
0.985, -3.300e-6, -1.007e-5
0.990, -3.310e-6, -1.016e-5
0.995, -3.318e-6, -1.024e-5
1.000, -3.336e-6, -1.032e-5
1.005, -3.345e-6, -1.041e-5
1.010, -3.359e-6, -1.049e-5
1.015, -3.363e-6, -1.057e-5
1.020, -3.380e-6, -1.066e-5
1.025, -3.390e-6, -1.074e-5
1.030, -3.403e-6, -1.083e-5
1.035, -3.405e-6, -1.091e-5
1.040, -3.416e-6, -1.100e-5
1.045, -3.425e-6, -1.108e-5
1.050, -3.443e-6, -1.117e-5
1.055, -3.446e-6, -1.126e-5
1.060, -3.455e-6, -1.134e-5
1.065, -3.464e-6, -1.143e-5
1.070, -3.476e-6, -1.152e-5
1.075, -3.481e-6, -1.160e-5
1.080, -3.490e-6, -1.169e-5
1.085, -3.499e-6, -1.178e-5
1.090, -3.509e-6, -1.187e-5
1.095, -3.517e-6, -1.195e-5
1.100, -3.532e-6, -1.204e-5
1.105, -3.540e-6, -1.213e-5
1.110, -3.552e-6, -1.222e-5
1.115, -3.559e-6, -1.231e-5
1.120, -3.578e-6, -1.240e-5
1.125, -3.592e-6, -1.249e-5
1.130, -3.602e-6, -1.258e-5
1.135, -3.624e-6, -1.267e-5
1.140, -3.639e-6, -1.276e-5
1.145, -3.656e-6, -1.285e-5
1.150, -3.105e-6, -1.293e-5

Segment 6:
1.145, -2.470e-6, -1.299e-5
1.140, -2.040e-6, -1.304e-5
1.135, -1.705e-6, -1.308e-5
1.130, -1.444e-6, -1.312e-5
1.125, -1.233e-6, -1.315e-5
1.120, -1.063e-6, -1.318e-5
1.115, -9.206e-7, -1.320e-5
1.110, -8.021e-7, -1.322e-5
1.105, -6.972e-7, -1.324e-5
1.100, -6.127e-7, -1.325e-5
1.095, -5.371e-7, -1.327e-5
1.090, -4.685e-7, -1.328e-5
1.085, -4.103e-7, -1.329e-5
1.080, -3.607e-7, -1.330e-5
1.075, -3.185e-7, -1.331e-5
1.070, -2.820e-7, -1.331e-5
1.065, -2.372e-7, -1.332e-5
1.060, -2.075e-7, -1.332e-5
1.055, -1.761e-7, -1.333e-5
1.050, -1.588e-7, -1.333e-5
1.045, -1.243e-7, -1.334e-5
1.040, -1.117e-7, -1.334e-5
1.035, -7.756e-8, -1.334e-5
1.030, -5.895e-8, -1.334e-5
1.025, -3.307e-8, -1.334e-5
1.020, -1.932e-8, -1.334e-5
1.015, 3.145e-10, -1.334e-5
1.010, 1.153e-8, -1.334e-5
1.005, 2.757e-8, -1.334e-5
1.000, 4.123e-8, -1.334e-5
0.995, 5.514e-8, -1.334e-5
0.990, 6.179e-8, -1.334e-5
0.985, 7.695e-8, -1.334e-5
0.980, 8.815e-8, -1.333e-5
0.975, 1.022e-7, -1.333e-5
0.970, 1.078e-7, -1.333e-5
0.965, 1.218e-7, -1.333e-5
0.960, 1.277e-7, -1.332e-5
0.955, 1.395e-7, -1.332e-5
0.950, 1.491e-7, -1.331e-5
0.945, 1.629e-7, -1.331e-5
0.940, 1.658e-7, -1.331e-5
0.935, 1.746e-7, -1.330e-5
0.930, 1.824e-7, -1.330e-5
0.925, 1.968e-7, -1.329e-5
0.920, 2.010e-7, -1.329e-5
0.915, 2.111e-7, -1.328e-5
0.910, 2.138e-7, -1.328e-5
0.905, 2.280e-7, -1.327e-5
0.900, 2.374e-7, -1.327e-5
0.895, 2.424e-7, -1.326e-5
0.890, 2.509e-7, -1.325e-5
0.885, 2.638e-7, -1.325e-5
0.880, 2.654e-7, -1.324e-5
0.875, 2.763e-7, -1.323e-5
0.870, 2.868e-7, -1.323e-5
0.865, 2.929e-7, -1.322e-5
0.860, 3.033e-7, -1.321e-5
0.855, 3.136e-7, -1.320e-5
0.850, 3.180e-7, -1.320e-5
0.845, 3.299e-7, -1.319e-5
0.840, 3.399e-7, -1.318e-5
0.835, 3.500e-7, -1.317e-5
0.830, 3.566e-7, -1.316e-5
0.825, 3.671e-7, -1.315e-5
0.820, 3.727e-7, -1.314e-5
0.815, 3.899e-7, -1.313e-5
0.810, 3.982e-7, -1.312e-5
0.805, 4.129e-7, -1.311e-5
0.800, 4.201e-7, -1.310e-5
0.795, 4.361e-7, -1.309e-5
0.790, 4.439e-7, -1.308e-5
0.785, 4.614e-7, -1.307e-5
0.780, 4.693e-7, -1.306e-5
0.775, 4.827e-7, -1.304e-5
0.770, 4.943e-7, -1.303e-5
0.765, 5.112e-7, -1.302e-5
0.760, 5.224e-7, -1.301e-5
0.755, 5.386e-7, -1.299e-5
0.750, 5.510e-7, -1.298e-5
0.745, 5.697e-7, -1.296e-5
0.740, 5.861e-7, -1.295e-5
0.735, 6.028e-7, -1.294e-5
0.730, 6.156e-7, -1.292e-5
0.725, 6.441e-7, -1.290e-5
0.720, 6.550e-7, -1.289e-5
0.715, 6.791e-7, -1.287e-5
0.710, 6.992e-7, -1.285e-5
0.705, 7.181e-7, -1.283e-5
0.700, 7.406e-7, -1.282e-5
0.695, 7.619e-7, -1.280e-5
0.690, 7.862e-7, -1.278e-5
0.685, 8.127e-7, -1.276e-5
0.680, 8.371e-7, -1.274e-5
0.675, 8.644e-7, -1.271e-5
0.670, 8.912e-7, -1.269e-5
0.665, 9.249e-7, -1.267e-5
0.660, 9.526e-7, -1.265e-5
0.655, 9.862e-7, -1.262e-5
0.650, 1.013e-6, -1.260e-5
0.645, 1.052e-6, -1.257e-5
0.640, 1.093e-6, -1.254e-5
0.635, 1.132e-6, -1.251e-5
0.630, 1.166e-6, -1.248e-5
0.625, 1.215e-6, -1.245e-5
0.620, 1.262e-6, -1.242e-5
0.615, 1.302e-6, -1.239e-5
0.610, 1.353e-6, -1.236e-5
0.605, 1.420e-6, -1.232e-5
0.600, 1.483e-6, -1.228e-5
0.595, 1.541e-6, -1.225e-5
0.590, 1.602e-6, -1.221e-5
0.585, 1.676e-6, -1.216e-5
0.580, 1.740e-6, -1.212e-5
0.575, 1.811e-6, -1.207e-5
0.570, 1.886e-6, -1.203e-5
0.565, 1.974e-6, -1.198e-5
0.560, 2.053e-6, -1.193e-5
0.555, 2.154e-6, -1.187e-5
0.550, 2.240e-6, -1.182e-5
0.545, 2.347e-6, -1.176e-5
0.540, 2.457e-6, -1.170e-5
0.535, 2.571e-6, -1.163e-5
0.530, 2.684e-6, -1.157e-5
0.525, 2.817e-6, -1.149e-5
0.520, 2.949e-6, -1.142e-5
0.515, 3.093e-6, -1.134e-5
0.510, 3.242e-6, -1.126e-5
0.505, 3.397e-6, -1.118e-5
0.500, 3.553e-6, -1.109e-5
0.495, 3.719e-6, -1.100e-5
0.490, 3.889e-6, -1.090e-5
0.485, 4.069e-6, -1.080e-5
0.480, 4.246e-6, -1.069e-5
0.475, 4.425e-6, -1.058e-5
0.470, 4.618e-6, -1.046e-5
0.465, 4.796e-6, -1.034e-5
0.460, 4.966e-6, -1.022e-5
0.455, 5.134e-6, -1.009e-5
0.450, 5.282e-6, -9.960e-6
0.445, 5.429e-6, -9.825e-6
0.440, 5.553e-6, -9.686e-6
0.435, 5.669e-6, -9.544e-6
0.430, 5.745e-6, -9.400e-6
0.425, 5.807e-6, -9.255e-6
0.420, 5.838e-6, -9.109e-6
0.415, 5.845e-6, -8.963e-6
0.410, 5.793e-6, -8.818e-6
0.405, 5.748e-6, -8.675e-6
0.400, 5.664e-6, -8.533e-6
0.395, 5.561e-6, -8.394e-6
0.390, 5.426e-6, -8.258e-6
0.385, 5.283e-6, -8.126e-6
0.380, 5.109e-6, -7.999e-6
0.375, 4.934e-6, -7.875e-6
0.370, 4.729e-6, -7.757e-6
0.365, 4.520e-6, -7.644e-6
0.360, 4.309e-6, -7.536e-6
0.355, 4.102e-6, -7.434e-6
0.350, 3.900e-6, -7.336e-6
0.345, 3.705e-6, -7.244e-6
0.340, 3.510e-6, -7.156e-6
0.335, 3.329e-6, -7.073e-6
0.330, 3.151e-6, -6.994e-6
0.325, 2.982e-6, -6.919e-6
0.320, 2.820e-6, -6.849e-6
0.315, 2.677e-6, -6.782e-6
0.310, 2.532e-6, -6.719e-6
0.305, 2.406e-6, -6.658e-6
0.300, 2.277e-6, -6.601e-6
0.295, 2.165e-6, -6.547e-6
0.290, 2.056e-6, -6.496e-6
0.285, 1.959e-6, -6.447e-6
0.280, 1.865e-6, -6.400e-6
0.275, 1.777e-6, -6.356e-6
0.270, 1.694e-6, -6.314e-6
0.265, 1.624e-6, -6.273e-6
0.260, 1.547e-6, -6.234e-6
0.255, 1.483e-6, -6.197e-6
0.250, 1.408e-6, -6.162e-6
0.245, 1.344e-6, -6.128e-6
0.240, 1.288e-6, -6.096e-6
0.235, 1.236e-6, -6.065e-6
0.230, 1.187e-6, -6.036e-6
0.225, 1.143e-6, -6.007e-6
0.220, 1.094e-6, -5.980e-6
0.215, 1.056e-6, -5.953e-6
0.210, 1.015e-6, -5.928e-6
0.205, 9.784e-7, -5.903e-6
0.200, 9.425e-7, -5.880e-6
0.195, 9.086e-7, -5.857e-6
0.190, 8.756e-7, -5.835e-6
0.185, 8.511e-7, -5.814e-6
0.180, 8.192e-7, -5.794e-6
0.175, 7.960e-7, -5.774e-6
0.170, 7.641e-7, -5.755e-6
0.165, 7.473e-7, -5.736e-6
0.160, 7.223e-7, -5.718e-6
0.155, 7.065e-7, -5.700e-6
0.150, 6.860e-7, -5.683e-6
0.145, 6.633e-7, -5.666e-6
0.140, 6.558e-7, -5.650e-6
0.135, 6.366e-7, -5.634e-6
0.130, 6.225e-7, -5.619e-6
0.125, 6.143e-7, -5.603e-6
0.120, 6.016e-7, -5.588e-6
0.115, 5.945e-7, -5.573e-6
0.110, 5.764e-7, -5.559e-6
0.105, 5.734e-7, -5.545e-6
0.100, 5.647e-7, -5.530e-6
0.095, 5.611e-7, -5.516e-6
0.090, 5.520e-7, -5.503e-6
0.085, 5.514e-7, -5.489e-6
0.080, 5.464e-7, -5.475e-6
0.075, 5.480e-7, -5.461e-6
0.070, 5.423e-7, -5.448e-6
0.065, 5.483e-7, -5.434e-6
0.060, 5.500e-7, -5.420e-6
0.055, 5.557e-7, -5.407e-6
0.050, 5.573e-7, -5.393e-6
0.045, 5.679e-7, -5.378e-6
0.040, 5.784e-7, -5.364e-6
0.035, 5.952e-7, -5.349e-6
0.030, 6.094e-7, -5.334e-6
0.025, 6.347e-7, -5.318e-6
0.020, 6.551e-7, -5.302e-6
0.015, 6.872e-7, -5.284e-6
0.010, 7.152e-7, -5.267e-6
0.005, 7.565e-7, -5.248e-6
0.000, 7.967e-7, -5.228e-6
-0.005, 8.572e-7, -5.206e-6
-0.010, 9.092e-7, -5.184e-6
-0.015, 9.899e-7, -5.159e-6
-0.020, 1.073e-6, -5.132e-6
-0.025, 1.178e-6, -5.103e-6
-0.030, 1.270e-6, -5.071e-6
-0.035, 1.402e-6, -5.036e-6
-0.040, 1.541e-6, -4.997e-6
-0.045, 1.673e-6, -4.955e-6
-0.050, 1.789e-6, -4.911e-6
-0.055, 1.915e-6, -4.863e-6
-0.060, 2.038e-6, -4.812e-6
-0.065, 2.148e-6, -4.758e-6
-0.070, 2.232e-6, -4.702e-6
-0.075, 2.334e-6, -4.644e-6
-0.080, 2.415e-6, -4.584e-6
-0.085, 2.494e-6, -4.521e-6
-0.090, 2.539e-6, -4.458e-6
-0.095, 2.599e-6, -4.393e-6
-0.100, 2.668e-6, -4.326e-6
-0.105, 2.697e-6, -4.259e-6
-0.110, 2.692e-6, -4.191e-6
-0.115, 2.698e-6, -4.124e-6
-0.120, 2.741e-6, -4.055e-6
-0.125, 2.747e-6, -3.987e-6
-0.130, 2.728e-6, -3.919e-6
-0.135, 2.765e-6, -3.849e-6
-0.140, 2.806e-6, -3.779e-6
-0.145, 2.868e-6, -3.708e-6
-0.150, 2.921e-6, -3.635e-6
-0.155, 3.010e-6, -3.559e-6
-0.160, 3.141e-6, -3.481e-6
-0.165, 3.281e-6, -3.399e-6
-0.170, 3.423e-6, -3.313e-6
-0.175, 3.602e-6, -3.223e-6
-0.180, 3.817e-6, -3.128e-6
-0.185, 4.019e-6, -3.027e-6
-0.190, 4.199e-6, -2.922e-6
-0.195, 4.385e-6, -2.813e-6
-0.200, 4.611e-6, -2.697e-6
-0.205, 4.800e-6, -2.577e-6
-0.210, 4.937e-6, -2.454e-6
-0.215, 5.065e-6, -2.327e-6
-0.220, 5.204e-6, -2.197e-6
-0.225, 5.308e-6, -2.064e-6
-0.230, 5.394e-6, -1.930e-6
-0.235, 5.421e-6, -1.794e-6
-0.240, 5.456e-6, -1.658e-6
-0.245, 5.467e-6, -1.521e-6
-0.250, 5.454e-6, -1.385e-6
-0.255, 5.399e-6, -1.250e-6
-0.260, 5.401e-6, -1.115e-6
-0.265, 5.382e-6, -9.801e-7
-0.270, 5.351e-6, -8.464e-7
-0.275, 5.378e-6, -7.119e-7
-0.280, 1.683e-6, -6.698e-7

Segment 7:
-0.275, -9.259e-7, -6.930e-7
-0.270, -1.709e-6, -7.357e-7
-0.265, -2.147e-6, -7.894e-7
-0.260, -2.457e-6, -8.508e-7
-0.255, -2.683e-6, -9.179e-7
-0.250, -2.906e-6, -9.906e-7
-0.245, -3.069e-6, -1.067e-6
-0.240, -3.199e-6, -1.147e-6
-0.235, -3.316e-6, -1.230e-6
-0.230, -3.440e-6, -1.316e-6
-0.225, -3.525e-6, -1.404e-6
-0.220, -3.548e-6, -1.493e-6
-0.215, -3.567e-6, -1.582e-6
-0.210, -3.580e-6, -1.672e-6
-0.205, -3.571e-6, -1.761e-6
-0.200, -3.519e-6, -1.849e-6
-0.195, -3.464e-6, -1.935e-6
-0.190, -3.435e-6, -2.021e-6
-0.185, -3.377e-6, -2.106e-6
-0.180, -3.292e-6, -2.188e-6
-0.175, -3.160e-6, -2.267e-6
-0.170, -3.042e-6, -2.343e-6
-0.165, -2.915e-6, -2.416e-6
-0.160, -2.777e-6, -2.485e-6
-0.155, -2.654e-6, -2.552e-6
-0.150, -2.596e-6, -2.617e-6
-0.145, -2.528e-6, -2.680e-6
-0.140, -2.466e-6, -2.742e-6
-0.135, -2.432e-6, -2.802e-6
-0.130, -2.433e-6, -2.863e-6
-0.125, -2.423e-6, -2.924e-6
-0.120, -2.417e-6, -2.984e-6
-0.115, -2.412e-6, -3.045e-6
-0.110, -2.454e-6, -3.106e-6
-0.105, -2.483e-6, -3.168e-6
-0.100, -2.494e-6, -3.230e-6
-0.095, -2.512e-6, -3.293e-6
-0.090, -2.548e-6, -3.357e-6
-0.085, -2.588e-6, -3.421e-6
-0.080, -2.627e-6, -3.487e-6
-0.075, -2.662e-6, -3.554e-6
-0.070, -2.713e-6, -3.622e-6
-0.065, -2.748e-6, -3.690e-6
-0.060, -2.751e-6, -3.759e-6
-0.055, -2.749e-6, -3.828e-6
-0.050, -2.700e-6, -3.895e-6
-0.045, -2.602e-6, -3.960e-6
-0.040, -2.438e-6, -4.021e-6
-0.035, -2.228e-6, -4.077e-6
-0.030, -2.026e-6, -4.128e-6
-0.025, -1.817e-6, -4.173e-6
-0.020, -1.607e-6, -4.213e-6
-0.015, -1.417e-6, -4.249e-6
-0.010, -1.275e-6, -4.280e-6
-0.005, -1.148e-6, -4.309e-6
-0.000, -1.031e-6, -4.335e-6
0.005, -9.468e-7, -4.359e-6
0.010, -8.745e-7, -4.380e-6
0.015, -8.102e-7, -4.401e-6
0.020, -7.509e-7, -4.419e-6
0.025, -6.973e-7, -4.437e-6
0.030, -6.567e-7, -4.453e-6
0.035, -6.127e-7, -4.469e-6
0.040, -5.815e-7, -4.483e-6
0.045, -5.507e-7, -4.497e-6
0.050, -5.195e-7, -4.510e-6
0.055, -5.020e-7, -4.522e-6
0.060, -4.728e-7, -4.534e-6
0.065, -4.552e-7, -4.546e-6
0.070, -4.437e-7, -4.557e-6
0.075, -4.284e-7, -4.567e-6
0.080, -4.157e-7, -4.578e-6
0.085, -4.049e-7, -4.588e-6
0.090, -3.999e-7, -4.598e-6
0.095, -3.886e-7, -4.608e-6
0.100, -3.866e-7, -4.617e-6
0.105, -3.757e-7, -4.627e-6
0.110, -3.748e-7, -4.636e-6
0.115, -3.690e-7, -4.645e-6
0.120, -3.671e-7, -4.655e-6
0.125, -3.635e-7, -4.664e-6
0.130, -3.642e-7, -4.673e-6
0.135, -3.597e-7, -4.682e-6
0.140, -3.577e-7, -4.691e-6
0.145, -3.572e-7, -4.700e-6
0.150, -3.566e-7, -4.709e-6
0.155, -3.523e-7, -4.717e-6
0.160, -3.549e-7, -4.726e-6
0.165, -3.489e-7, -4.735e-6
0.170, -3.543e-7, -4.744e-6
0.175, -3.474e-7, -4.752e-6
0.180, -3.520e-7, -4.761e-6
0.185, -3.466e-7, -4.770e-6
0.190, -3.516e-7, -4.779e-6
0.195, -3.469e-7, -4.787e-6
0.200, -3.508e-7, -4.796e-6
0.205, -3.462e-7, -4.805e-6
0.210, -3.533e-7, -4.814e-6
0.215, -3.483e-7, -4.822e-6
0.220, -3.537e-7, -4.831e-6
0.225, -3.506e-7, -4.840e-6
0.230, -3.575e-7, -4.849e-6
0.235, -3.523e-7, -4.858e-6
0.240, -3.562e-7, -4.867e-6
0.245, -3.559e-7, -4.876e-6
0.250, -3.608e-7, -4.885e-6
0.255, -3.548e-7, -4.893e-6
0.260, -3.613e-7, -4.902e-6
0.265, -3.609e-7, -4.911e-6
0.270, -3.644e-7, -4.921e-6
0.275, -3.615e-7, -4.930e-6
0.280, -3.648e-7, -4.939e-6
0.285, -3.643e-7, -4.948e-6
0.290, -3.680e-7, -4.957e-6
0.295, -3.655e-7, -4.966e-6
0.300, -3.684e-7, -4.975e-6
0.305, -3.692e-7, -4.985e-6
0.310, -3.716e-7, -4.994e-6
0.315, -3.716e-7, -5.003e-6
0.320, -3.737e-7, -5.013e-6
0.325, -3.741e-7, -5.022e-6
0.330, -3.781e-7, -5.031e-6
0.335, -3.791e-7, -5.041e-6
0.340, -3.842e-7, -5.050e-6
0.345, -3.823e-7, -5.060e-6
0.350, -3.897e-7, -5.070e-6
0.355, -3.910e-7, -5.079e-6
0.360, -3.995e-7, -5.089e-6
0.365, -3.997e-7, -5.099e-6
0.370, -4.113e-7, -5.110e-6
0.375, -4.130e-7, -5.120e-6
0.380, -4.172e-7, -5.131e-6
0.385, -4.208e-7, -5.141e-6
0.390, -4.299e-7, -5.152e-6
0.395, -4.358e-7, -5.163e-6
0.400, -4.467e-7, -5.174e-6
0.405, -4.532e-7, -5.185e-6
0.410, -4.628e-7, -5.197e-6
0.415, -4.747e-7, -5.209e-6
0.420, -4.827e-7, -5.221e-6
0.425, -4.926e-7, -5.233e-6
0.430, -5.133e-7, -5.246e-6
0.435, -5.200e-7, -5.259e-6
0.440, -5.395e-7, -5.272e-6
0.445, -5.565e-7, -5.286e-6
0.450, -5.686e-7, -5.300e-6
0.455, -5.858e-7, -5.315e-6
0.460, -6.066e-7, -5.330e-6
0.465, -6.281e-7, -5.346e-6
0.470, -6.575e-7, -5.362e-6
0.475, -6.831e-7, -5.379e-6
0.480, -7.161e-7, -5.397e-6
0.485, -7.524e-7, -5.416e-6
0.490, -7.926e-7, -5.436e-6
0.495, -8.376e-7, -5.457e-6
0.500, -8.918e-7, -5.479e-6
0.505, -9.527e-7, -5.503e-6
0.510, -1.019e-6, -5.529e-6
0.515, -1.086e-6, -5.556e-6
0.520, -1.163e-6, -5.585e-6
0.525, -1.236e-6, -5.616e-6
0.530, -1.318e-6, -5.649e-6
0.535, -1.394e-6, -5.683e-6
0.540, -1.473e-6, -5.720e-6
0.545, -1.541e-6, -5.759e-6
0.550, -1.614e-6, -5.799e-6
0.555, -1.679e-6, -5.841e-6
0.560, -1.745e-6, -5.885e-6
0.565, -1.808e-6, -5.930e-6
0.570, -1.865e-6, -5.977e-6
0.575, -1.915e-6, -6.024e-6
0.580, -1.968e-6, -6.074e-6
0.585, -2.020e-6, -6.124e-6
0.590, -2.074e-6, -6.176e-6
0.595, -2.122e-6, -6.229e-6
0.600, -2.173e-6, -6.283e-6
0.605, -2.218e-6, -6.339e-6
0.610, -2.268e-6, -6.396e-6
0.615, -2.306e-6, -6.453e-6
0.620, -2.351e-6, -6.512e-6
0.625, -2.380e-6, -6.571e-6
0.630, -2.421e-6, -6.632e-6
0.635, -2.449e-6, -6.693e-6
0.640, -2.480e-6, -6.755e-6
0.645, -2.502e-6, -6.818e-6
0.650, -2.520e-6, -6.881e-6
0.655, -2.541e-6, -6.944e-6
0.660, -2.563e-6, -7.008e-6
0.665, -2.570e-6, -7.073e-6
0.670, -2.592e-6, -7.137e-6
0.675, -2.602e-6, -7.202e-6
0.680, -2.616e-6, -7.268e-6
0.685, -2.627e-6, -7.334e-6
0.690, -2.639e-6, -7.399e-6
0.695, -2.648e-6, -7.466e-6
0.700, -2.659e-6, -7.532e-6
0.705, -2.661e-6, -7.599e-6
0.710, -2.673e-6, -7.666e-6
0.715, -2.681e-6, -7.733e-6
0.720, -2.685e-6, -7.800e-6
0.725, -2.688e-6, -7.867e-6
0.730, -2.696e-6, -7.934e-6
0.735, -2.703e-6, -8.002e-6
0.740, -2.711e-6, -8.070e-6
0.745, -2.712e-6, -8.137e-6
0.750, -2.723e-6, -8.205e-6
0.755, -2.722e-6, -8.274e-6
0.760, -2.724e-6, -8.342e-6
0.765, -2.723e-6, -8.410e-6
0.770, -2.730e-6, -8.478e-6
0.775, -2.728e-6, -8.546e-6
0.780, -2.733e-6, -8.614e-6
0.785, -2.731e-6, -8.683e-6
0.790, -2.738e-6, -8.751e-6
0.795, -2.741e-6, -8.820e-6
0.800, -2.744e-6, -8.888e-6
0.805, -2.743e-6, -8.957e-6
0.810, -2.754e-6, -9.026e-6
0.815, -2.759e-6, -9.095e-6
0.820, -2.760e-6, -9.164e-6
0.825, -2.767e-6, -9.233e-6
0.830, -2.776e-6, -9.302e-6
0.835, -2.783e-6, -9.372e-6
0.840, -2.792e-6, -9.442e-6
0.845, -2.802e-6, -9.512e-6
0.850, -2.823e-6, -9.582e-6
0.855, -2.829e-6, -9.653e-6
0.860, -2.838e-6, -9.724e-6
0.865, -2.847e-6, -9.795e-6
0.870, -2.863e-6, -9.867e-6
0.875, -2.877e-6, -9.939e-6
0.880, -2.893e-6, -1.001e-5
0.885, -2.905e-6, -1.008e-5
0.890, -2.921e-6, -1.016e-5
0.895, -2.940e-6, -1.023e-5
0.900, -2.953e-6, -1.030e-5
0.905, -2.967e-6, -1.038e-5
0.910, -2.983e-6, -1.045e-5
0.915, -2.998e-6, -1.053e-5
0.920, -3.018e-6, -1.060e-5
0.925, -3.028e-6, -1.068e-5
0.930, -3.047e-6, -1.075e-5
0.935, -3.057e-6, -1.083e-5
0.940, -3.072e-6, -1.091e-5
0.945, -3.084e-6, -1.099e-5
0.950, -3.102e-6, -1.106e-5
0.955, -3.112e-6, -1.114e-5
0.960, -3.123e-6, -1.122e-5
0.965, -3.136e-6, -1.130e-5
0.970, -3.150e-6, -1.138e-5
0.975, -3.160e-6, -1.145e-5
0.980, -3.173e-6, -1.153e-5
0.985, -3.181e-6, -1.161e-5
0.990, -3.200e-6, -1.169e-5
0.995, -3.205e-6, -1.177e-5
1.000, -3.212e-6, -1.185e-5
1.005, -3.221e-6, -1.193e-5
1.010, -3.239e-6, -1.202e-5
1.015, -3.247e-6, -1.210e-5
1.020, -3.252e-6, -1.218e-5
1.025, -3.266e-6, -1.226e-5
1.030, -3.268e-6, -1.234e-5
1.035, -3.278e-6, -1.242e-5
1.040, -3.293e-6, -1.251e-5
1.045, -3.296e-6, -1.259e-5
1.050, -3.303e-6, -1.267e-5
1.055, -3.314e-6, -1.275e-5
1.060, -3.321e-6, -1.284e-5
1.065, -3.323e-6, -1.292e-5
1.070, -3.339e-6, -1.300e-5
1.075, -3.343e-6, -1.309e-5
1.080, -3.352e-6, -1.317e-5
1.085, -3.357e-6, -1.325e-5
1.090, -3.371e-6, -1.334e-5
1.095, -3.379e-6, -1.342e-5
1.100, -3.394e-6, -1.351e-5
1.105, -3.400e-6, -1.359e-5
1.110, -3.414e-6, -1.368e-5
1.115, -3.423e-6, -1.376e-5
1.120, -3.437e-6, -1.385e-5
1.125, -3.450e-6, -1.394e-5
1.130, -3.467e-6, -1.402e-5
1.135, -3.479e-6, -1.411e-5
1.140, -3.497e-6, -1.420e-5
1.145, -3.510e-6, -1.429e-5
1.150, -2.967e-6, -1.436e-5

Segment 8:
1.145, -2.347e-6, -1.442e-5
1.140, -1.931e-6, -1.447e-5
1.135, -1.603e-6, -1.451e-5
1.130, -1.359e-6, -1.454e-5
1.125, -1.159e-6, -1.457e-5
1.120, -9.970e-7, -1.459e-5
1.115, -8.585e-7, -1.462e-5
1.110, -7.472e-7, -1.463e-5
1.105, -6.497e-7, -1.465e-5
1.100, -5.720e-7, -1.466e-5
1.095, -4.887e-7, -1.468e-5
1.090, -4.340e-7, -1.469e-5
1.085, -3.758e-7, -1.470e-5
1.080, -3.316e-7, -1.471e-5
1.075, -2.845e-7, -1.471e-5
1.070, -2.499e-7, -1.472e-5
1.065, -2.134e-7, -1.472e-5
1.060, -1.875e-7, -1.473e-5
1.055, -1.574e-7, -1.473e-5
1.050, -1.281e-7, -1.474e-5
1.045, -1.107e-7, -1.474e-5
1.040, -7.461e-8, -1.474e-5
1.035, -5.529e-8, -1.474e-5
1.030, -3.870e-8, -1.474e-5
1.025, -1.735e-8, -1.474e-5
1.020, -3.486e-9, -1.474e-5
1.015, 1.701e-8, -1.474e-5
1.010, 2.443e-8, -1.474e-5
1.005, 4.203e-8, -1.474e-5
1.000, 5.317e-8, -1.474e-5
0.995, 7.096e-8, -1.474e-5
0.990, 7.397e-8, -1.474e-5
0.985, 9.138e-8, -1.473e-5
0.980, 9.861e-8, -1.473e-5
0.975, 1.143e-7, -1.473e-5
0.970, 1.200e-7, -1.473e-5
0.965, 1.327e-7, -1.472e-5
0.960, 1.389e-7, -1.472e-5
0.955, 1.542e-7, -1.472e-5
0.950, 1.593e-7, -1.471e-5
0.945, 1.696e-7, -1.471e-5
0.940, 1.786e-7, -1.470e-5
0.935, 1.881e-7, -1.470e-5
0.930, 1.922e-7, -1.469e-5
0.925, 2.036e-7, -1.469e-5
0.920, 2.080e-7, -1.468e-5
0.915, 2.226e-7, -1.468e-5
0.910, 2.282e-7, -1.467e-5
0.905, 2.374e-7, -1.467e-5
0.900, 2.413e-7, -1.466e-5
0.895, 2.523e-7, -1.465e-5
0.890, 2.627e-7, -1.465e-5
0.885, 2.664e-7, -1.464e-5
0.880, 2.806e-7, -1.463e-5
0.875, 2.905e-7, -1.463e-5
0.870, 2.890e-7, -1.462e-5
0.865, 3.012e-7, -1.461e-5
0.860, 3.136e-7, -1.460e-5
0.855, 3.220e-7, -1.460e-5
0.850, 3.247e-7, -1.459e-5
0.845, 3.384e-7, -1.458e-5
0.840, 3.446e-7, -1.457e-5
0.835, 3.582e-7, -1.456e-5
0.830, 3.644e-7, -1.455e-5
0.825, 3.775e-7, -1.454e-5
0.820, 3.820e-7, -1.453e-5
0.815, 3.997e-7, -1.452e-5
0.810, 4.063e-7, -1.451e-5
0.805, 4.198e-7, -1.450e-5
0.800, 4.298e-7, -1.449e-5
0.795, 4.463e-7, -1.448e-5
0.790, 4.537e-7, -1.447e-5
0.785, 4.668e-7, -1.446e-5
0.780, 4.767e-7, -1.445e-5
0.775, 4.936e-7, -1.443e-5
0.770, 5.032e-7, -1.442e-5
0.765, 5.180e-7, -1.441e-5
0.760, 5.304e-7, -1.439e-5
0.755, 5.478e-7, -1.438e-5
0.750, 5.598e-7, -1.437e-5
0.745, 5.791e-7, -1.435e-5
0.740, 5.906e-7, -1.434e-5
0.735, 6.135e-7, -1.432e-5
0.730, 6.305e-7, -1.431e-5
0.725, 6.475e-7, -1.429e-5
0.720, 6.691e-7, -1.427e-5
0.715, 6.901e-7, -1.426e-5
0.710, 7.030e-7, -1.424e-5
0.705, 7.268e-7, -1.422e-5
0.700, 7.496e-7, -1.420e-5
0.695, 7.769e-7, -1.418e-5
0.690, 7.986e-7, -1.416e-5
0.685, 8.229e-7, -1.414e-5
0.680, 8.461e-7, -1.412e-5
0.675, 8.781e-7, -1.410e-5
0.670, 8.999e-7, -1.408e-5
0.665, 9.314e-7, -1.405e-5
0.660, 9.627e-7, -1.403e-5
0.655, 1.002e-6, -1.400e-5
0.650, 1.039e-6, -1.398e-5
0.645, 1.065e-6, -1.395e-5
0.640, 1.108e-6, -1.392e-5
0.635, 1.148e-6, -1.389e-5
0.630, 1.185e-6, -1.386e-5
0.625, 1.230e-6, -1.383e-5
0.620, 1.272e-6, -1.380e-5
0.615, 1.326e-6, -1.377e-5
0.610, 1.378e-6, -1.373e-5
0.605, 1.443e-6, -1.370e-5
0.600, 1.502e-6, -1.366e-5
0.595, 1.566e-6, -1.362e-5
0.590, 1.629e-6, -1.358e-5
0.585, 1.696e-6, -1.354e-5
0.580, 1.762e-6, -1.349e-5
0.575, 1.845e-6, -1.345e-5
0.570, 1.917e-6, -1.340e-5
0.565, 2.001e-6, -1.335e-5
0.560, 2.087e-6, -1.330e-5
0.555, 2.185e-6, -1.324e-5
0.550, 2.282e-6, -1.319e-5
0.545, 2.386e-6, -1.313e-5
0.540, 2.497e-6, -1.306e-5
0.535, 2.618e-6, -1.300e-5
0.530, 2.739e-6, -1.293e-5
0.525, 2.869e-6, -1.286e-5
0.520, 3.007e-6, -1.278e-5
0.515, 3.163e-6, -1.270e-5
0.510, 3.311e-6, -1.262e-5
0.505, 3.471e-6, -1.254e-5
0.500, 3.629e-6, -1.244e-5
0.495, 3.805e-6, -1.235e-5
0.490, 3.979e-6, -1.225e-5
0.485, 4.163e-6, -1.215e-5
0.480, 4.346e-6, -1.204e-5
0.475, 4.545e-6, -1.192e-5
0.470, 4.736e-6, -1.181e-5
0.465, 4.919e-6, -1.168e-5
0.460, 5.091e-6, -1.156e-5
0.455, 5.271e-6, -1.142e-5
0.450, 5.424e-6, -1.129e-5
0.445, 5.567e-6, -1.115e-5
0.440, 5.688e-6, -1.101e-5
0.435, 5.805e-6, -1.086e-5
0.430, 5.887e-6, -1.071e-5
0.425, 5.944e-6, -1.057e-5
0.420, 5.962e-6, -1.042e-5
0.415, 5.968e-6, -1.027e-5
0.410, 5.912e-6, -1.012e-5
0.405, 5.859e-6, -9.973e-6
0.400, 5.762e-6, -9.829e-6
0.395, 5.649e-6, -9.688e-6
0.390, 5.507e-6, -9.550e-6
0.385, 5.346e-6, -9.416e-6
0.380, 5.166e-6, -9.287e-6
0.375, 4.976e-6, -9.163e-6
0.370, 4.768e-6, -9.044e-6
0.365, 4.550e-6, -8.930e-6
0.360, 4.324e-6, -8.822e-6
0.355, 4.115e-6, -8.719e-6
0.350, 3.906e-6, -8.621e-6
0.345, 3.701e-6, -8.529e-6
0.340, 3.504e-6, -8.441e-6
0.335, 3.323e-6, -8.358e-6
0.330, 3.139e-6, -8.280e-6
0.325, 2.968e-6, -8.205e-6
0.320, 2.801e-6, -8.135e-6
0.315, 2.659e-6, -8.069e-6
0.310, 2.511e-6, -8.006e-6
0.305, 2.382e-6, -7.947e-6
0.300, 2.254e-6, -7.890e-6
0.295, 2.146e-6, -7.837e-6
0.290, 2.037e-6, -7.786e-6
0.285, 1.938e-6, -7.737e-6
0.280, 1.847e-6, -7.691e-6
0.275, 1.762e-6, -7.647e-6
0.270, 1.679e-6, -7.605e-6
0.265, 1.605e-6, -7.565e-6
0.260, 1.531e-6, -7.527e-6
0.255, 1.468e-6, -7.490e-6
0.250, 1.391e-6, -7.455e-6
0.245, 1.324e-6, -7.422e-6
0.240, 1.268e-6, -7.390e-6
0.235, 1.222e-6, -7.360e-6
0.230, 1.169e-6, -7.331e-6
0.225, 1.124e-6, -7.302e-6
0.220, 1.082e-6, -7.275e-6
0.215, 1.037e-6, -7.249e-6
0.210, 9.989e-7, -7.225e-6
0.205, 9.571e-7, -7.201e-6
0.200, 9.187e-7, -7.178e-6
0.195, 8.911e-7, -7.155e-6
0.190, 8.567e-7, -7.134e-6
0.185, 8.312e-7, -7.113e-6
0.180, 7.990e-7, -7.093e-6
0.175, 7.776e-7, -7.074e-6
0.170, 7.495e-7, -7.055e-6
0.165, 7.267e-7, -7.037e-6
0.160, 7.018e-7, -7.019e-6
0.155, 6.878e-7, -7.002e-6
0.150, 6.616e-7, -6.986e-6
0.145, 6.495e-7, -6.969e-6
0.140, 6.266e-7, -6.954e-6
0.135, 6.187e-7, -6.938e-6
0.130, 6.059e-7, -6.923e-6
0.125, 5.950e-7, -6.908e-6
0.120, 5.800e-7, -6.894e-6
0.115, 5.717e-7, -6.879e-6
0.110, 5.613e-7, -6.865e-6
0.105, 5.549e-7, -6.851e-6
0.100, 5.476e-7, -6.838e-6
0.095, 5.468e-7, -6.824e-6
0.090, 5.375e-7, -6.811e-6
0.085, 5.341e-7, -6.797e-6
0.080, 5.260e-7, -6.784e-6
0.075, 5.306e-7, -6.771e-6
0.070, 5.263e-7, -6.758e-6
0.065, 5.307e-7, -6.744e-6
0.060, 5.310e-7, -6.731e-6
0.055, 5.456e-7, -6.718e-6
0.050, 5.479e-7, -6.704e-6
0.045, 5.560e-7, -6.690e-6
0.040, 5.659e-7, -6.676e-6
0.035, 5.853e-7, -6.661e-6
0.030, 6.017e-7, -6.646e-6
0.025, 6.167e-7, -6.631e-6
0.020, 6.425e-7, -6.615e-6
0.015, 6.770e-7, -6.598e-6
0.010, 7.077e-7, -6.580e-6
0.005, 7.434e-7, -6.561e-6
0.000, 7.845e-7, -6.542e-6
-0.005, 8.503e-7, -6.521e-6
-0.010, 9.100e-7, -6.498e-6
-0.015, 9.799e-7, -6.473e-6
-0.020, 1.064e-6, -6.447e-6
-0.025, 1.173e-6, -6.417e-6
-0.030, 1.277e-6, -6.385e-6
-0.035, 1.405e-6, -6.350e-6
-0.040, 1.536e-6, -6.312e-6
-0.045, 1.681e-6, -6.270e-6
-0.050, 1.809e-6, -6.225e-6
-0.055, 1.927e-6, -6.177e-6
-0.060, 2.042e-6, -6.125e-6
-0.065, 2.169e-6, -6.071e-6
-0.070, 2.270e-6, -6.014e-6
-0.075, 2.371e-6, -5.955e-6
-0.080, 2.439e-6, -5.894e-6
-0.085, 2.541e-6, -5.831e-6
-0.090, 2.597e-6, -5.766e-6
-0.095, 2.654e-6, -5.699e-6
-0.100, 2.686e-6, -5.632e-6
-0.105, 2.727e-6, -5.564e-6
-0.110, 2.744e-6, -5.495e-6
-0.115, 2.729e-6, -5.427e-6
-0.120, 2.729e-6, -5.359e-6
-0.125, 2.745e-6, -5.290e-6
-0.130, 2.759e-6, -5.221e-6
-0.135, 2.771e-6, -5.152e-6
-0.140, 2.806e-6, -5.082e-6
-0.145, 2.863e-6, -5.010e-6
-0.150, 2.934e-6, -4.937e-6
-0.155, 3.020e-6, -4.862e-6
-0.160, 3.125e-6, -4.783e-6
-0.165, 3.281e-6, -4.701e-6
-0.170, 3.450e-6, -4.615e-6
-0.175, 3.632e-6, -4.524e-6
-0.180, 3.832e-6, -4.429e-6
-0.185, 4.061e-6, -4.327e-6
-0.190, 4.254e-6, -4.221e-6
-0.195, 4.454e-6, -4.109e-6
-0.200, 4.636e-6, -3.993e-6
-0.205, 4.813e-6, -3.873e-6
-0.210, 4.972e-6, -3.749e-6
-0.215, 5.103e-6, -3.621e-6
-0.220, 5.201e-6, -3.491e-6
-0.225, 5.328e-6, -3.358e-6
-0.230, 5.386e-6, -3.223e-6
-0.235, 5.419e-6, -3.088e-6
-0.240, 5.419e-6, -2.952e-6
-0.245, 5.426e-6, -2.817e-6
-0.250, 5.390e-6, -2.682e-6
-0.255, 5.362e-6, -2.548e-6
-0.260, 5.320e-6, -2.415e-6
-0.265, 5.309e-6, -2.282e-6
-0.270, 5.297e-6, -2.150e-6
-0.275, 5.304e-6, -2.017e-6
-0.280, 1.586e-6, -1.978e-6

Segment 9:
-0.275, -1.010e-6, -2.003e-6
-0.270, -1.727e-6, -2.046e-6
-0.265, -2.183e-6, -2.101e-6
-0.260, -2.499e-6, -2.163e-6
-0.255, -2.713e-6, -2.231e-6
-0.250, -2.926e-6, -2.304e-6
-0.245, -3.085e-6, -2.381e-6
-0.240, -3.233e-6, -2.462e-6
-0.235, -3.351e-6, -2.546e-6
-0.230, -3.445e-6, -2.632e-6
-0.225, -3.513e-6, -2.720e-6
-0.220, -3.559e-6, -2.809e-6
-0.215, -3.572e-6, -2.898e-6
-0.210, -3.559e-6, -2.987e-6
-0.205, -3.545e-6, -3.076e-6
-0.200, -3.516e-6, -3.163e-6
-0.195, -3.460e-6, -3.250e-6
-0.190, -3.419e-6, -3.335e-6
-0.185, -3.370e-6, -3.420e-6
-0.180, -3.318e-6, -3.503e-6
-0.175, -3.196e-6, -3.583e-6
-0.170, -3.051e-6, -3.659e-6
-0.165, -2.902e-6, -3.731e-6
-0.160, -2.796e-6, -3.801e-6
-0.155, -2.671e-6, -3.868e-6
-0.150, -2.565e-6, -3.932e-6
-0.145, -2.484e-6, -3.994e-6
-0.140, -2.458e-6, -4.056e-6
-0.135, -2.406e-6, -4.116e-6
-0.130, -2.395e-6, -4.176e-6
-0.125, -2.381e-6, -4.235e-6
-0.120, -2.395e-6, -4.295e-6
-0.115, -2.394e-6, -4.355e-6
-0.110, -2.409e-6, -4.415e-6
-0.105, -2.441e-6, -4.476e-6
-0.100, -2.472e-6, -4.538e-6
-0.095, -2.489e-6, -4.600e-6
-0.090, -2.499e-6, -4.663e-6
-0.085, -2.562e-6, -4.727e-6
-0.080, -2.635e-6, -4.793e-6
-0.075, -2.669e-6, -4.859e-6
-0.070, -2.723e-6, -4.927e-6
-0.065, -2.806e-6, -4.998e-6
-0.060, -2.853e-6, -5.069e-6
-0.055, -2.856e-6, -5.140e-6
-0.050, -2.816e-6, -5.211e-6
-0.045, -2.730e-6, -5.279e-6
-0.040, -2.570e-6, -5.343e-6
-0.035, -2.362e-6, -5.402e-6
-0.030, -2.127e-6, -5.455e-6
-0.025, -1.890e-6, -5.503e-6
-0.020, -1.674e-6, -5.544e-6
-0.015, -1.461e-6, -5.581e-6
-0.010, -1.302e-6, -5.614e-6
-0.005, -1.166e-6, -5.643e-6
-0.000, -1.054e-6, -5.669e-6
0.005, -9.616e-7, -5.693e-6
0.010, -8.850e-7, -5.715e-6
0.015, -8.166e-7, -5.736e-6
0.020, -7.635e-7, -5.755e-6
0.025, -7.121e-7, -5.773e-6
0.030, -6.662e-7, -5.789e-6
0.035, -6.231e-7, -5.805e-6
0.040, -5.932e-7, -5.820e-6
0.045, -5.531e-7, -5.833e-6
0.050, -5.270e-7, -5.847e-6
0.055, -5.015e-7, -5.859e-6
0.060, -4.816e-7, -5.871e-6
0.065, -4.655e-7, -5.883e-6
0.070, -4.459e-7, -5.894e-6
0.075, -4.339e-7, -5.905e-6
0.080, -4.217e-7, -5.915e-6
0.085, -4.099e-7, -5.926e-6
0.090, -3.996e-7, -5.936e-6
0.095, -3.917e-7, -5.945e-6
0.100, -3.887e-7, -5.955e-6
0.105, -3.755e-7, -5.964e-6
0.110, -3.765e-7, -5.974e-6
0.115, -3.701e-7, -5.983e-6
0.120, -3.687e-7, -5.992e-6
0.125, -3.648e-7, -6.001e-6
0.130, -3.615e-7, -6.011e-6
0.135, -3.587e-7, -6.020e-6
0.140, -3.608e-7, -6.029e-6
0.145, -3.554e-7, -6.037e-6
0.150, -3.549e-7, -6.046e-6
0.155, -3.493e-7, -6.055e-6
0.160, -3.552e-7, -6.064e-6
0.165, -3.484e-7, -6.073e-6
0.170, -3.506e-7, -6.081e-6
0.175, -3.462e-7, -6.090e-6
0.180, -3.503e-7, -6.099e-6
0.185, -3.447e-7, -6.107e-6
0.190, -3.472e-7, -6.116e-6
0.195, -3.436e-7, -6.125e-6
0.200, -3.477e-7, -6.133e-6
0.205, -3.424e-7, -6.142e-6
0.210, -3.478e-7, -6.151e-6
0.215, -3.425e-7, -6.159e-6
0.220, -3.477e-7, -6.168e-6
0.225, -3.440e-7, -6.176e-6
0.230, -3.488e-7, -6.185e-6
0.235, -3.458e-7, -6.194e-6
0.240, -3.487e-7, -6.203e-6
0.245, -3.451e-7, -6.211e-6
0.250, -3.491e-7, -6.220e-6
0.255, -3.466e-7, -6.229e-6
0.260, -3.540e-7, -6.237e-6
0.265, -3.500e-7, -6.246e-6
0.270, -3.534e-7, -6.255e-6
0.275, -3.537e-7, -6.264e-6
0.280, -3.618e-7, -6.273e-6
0.285, -3.576e-7, -6.282e-6
0.290, -3.606e-7, -6.291e-6
0.295, -3.607e-7, -6.300e-6
0.300, -3.683e-7, -6.309e-6
0.305, -3.664e-7, -6.318e-6
0.310, -3.674e-7, -6.327e-6
0.315, -3.703e-7, -6.337e-6
0.320, -3.728e-7, -6.346e-6
0.325, -3.726e-7, -6.355e-6
0.330, -3.770e-7, -6.365e-6
0.335, -3.786e-7, -6.374e-6
0.340, -3.814e-7, -6.384e-6
0.345, -3.807e-7, -6.393e-6
0.350, -3.890e-7, -6.403e-6
0.355, -3.896e-7, -6.413e-6
0.360, -3.993e-7, -6.423e-6
0.365, -3.989e-7, -6.433e-6
0.370, -4.071e-7, -6.443e-6
0.375, -4.100e-7, -6.453e-6
0.380, -4.196e-7, -6.464e-6
0.385, -4.217e-7, -6.474e-6
0.390, -4.313e-7, -6.485e-6
0.395, -4.377e-7, -6.496e-6
0.400, -4.500e-7, -6.507e-6
0.405, -4.568e-7, -6.519e-6
0.410, -4.641e-7, -6.530e-6
0.415, -4.725e-7, -6.542e-6
0.420, -4.832e-7, -6.554e-6
0.425, -5.042e-7, -6.567e-6
0.430, -5.134e-7, -6.579e-6
0.435, -5.293e-7, -6.593e-6
0.440, -5.449e-7, -6.606e-6
0.445, -5.533e-7, -6.620e-6
0.450, -5.734e-7, -6.634e-6
0.455, -5.887e-7, -6.649e-6
0.460, -6.143e-7, -6.665e-6
0.465, -6.326e-7, -6.680e-6
0.470, -6.626e-7, -6.697e-6
0.475, -6.899e-7, -6.714e-6
0.480, -7.254e-7, -6.732e-6
0.485, -7.604e-7, -6.751e-6
0.490, -8.065e-7, -6.771e-6
0.495, -8.559e-7, -6.793e-6
0.500, -9.128e-7, -6.816e-6
0.505, -9.712e-7, -6.840e-6
0.510, -1.049e-6, -6.866e-6
0.515, -1.118e-6, -6.894e-6
0.520, -1.199e-6, -6.924e-6
0.525, -1.276e-6, -6.956e-6
0.530, -1.366e-6, -6.990e-6
0.535, -1.450e-6, -7.026e-6
0.540, -1.533e-6, -7.065e-6
0.545, -1.601e-6, -7.105e-6
0.550, -1.680e-6, -7.147e-6
0.555, -1.753e-6, -7.191e-6
0.560, -1.819e-6, -7.236e-6
0.565, -1.877e-6, -7.283e-6
0.570, -1.937e-6, -7.331e-6
0.575, -1.986e-6, -7.381e-6
0.580, -2.041e-6, -7.432e-6
0.585, -2.096e-6, -7.484e-6
0.590, -2.152e-6, -7.538e-6
0.595, -2.204e-6, -7.593e-6
0.600, -2.255e-6, -7.650e-6
0.605, -2.301e-6, -7.707e-6
0.610, -2.347e-6, -7.766e-6
0.615, -2.388e-6, -7.826e-6
0.620, -2.434e-6, -7.886e-6
0.625, -2.464e-6, -7.948e-6
0.630, -2.498e-6, -8.011e-6
0.635, -2.530e-6, -8.074e-6
0.640, -2.560e-6, -8.138e-6
0.645, -2.580e-6, -8.202e-6
0.650, -2.598e-6, -8.267e-6
0.655, -2.617e-6, -8.333e-6
0.660, -2.637e-6, -8.399e-6
0.665, -2.646e-6, -8.465e-6
0.670, -2.664e-6, -8.531e-6
0.675, -2.673e-6, -8.598e-6
0.680, -2.686e-6, -8.665e-6
0.685, -2.694e-6, -8.733e-6
0.690, -2.706e-6, -8.800e-6
0.695, -2.712e-6, -8.868e-6
0.700, -2.727e-6, -8.936e-6
0.705, -2.728e-6, -9.004e-6
0.710, -2.736e-6, -9.073e-6
0.715, -2.744e-6, -9.141e-6
0.720, -2.752e-6, -9.210e-6
0.725, -2.752e-6, -9.279e-6
0.730, -2.759e-6, -9.348e-6
0.735, -2.764e-6, -9.417e-6
0.740, -2.773e-6, -9.486e-6
0.745, -2.774e-6, -9.556e-6
0.750, -2.779e-6, -9.625e-6
0.755, -2.775e-6, -9.695e-6
0.760, -2.782e-6, -9.764e-6
0.765, -2.775e-6, -9.834e-6
0.770, -2.776e-6, -9.903e-6
0.775, -2.776e-6, -9.972e-6
0.780, -2.782e-6, -1.004e-5
0.785, -2.775e-6, -1.011e-5
0.790, -2.777e-6, -1.018e-5
0.795, -2.779e-6, -1.025e-5
0.800, -2.786e-6, -1.032e-5
0.805, -2.776e-6, -1.039e-5
0.810, -2.781e-6, -1.046e-5
0.815, -2.784e-6, -1.053e-5
0.820, -2.782e-6, -1.060e-5
0.825, -2.787e-6, -1.067e-5
0.830, -2.792e-6, -1.074e-5
0.835, -2.793e-6, -1.081e-5
0.840, -2.807e-6, -1.088e-5
0.845, -2.816e-6, -1.095e-5
0.850, -2.825e-6, -1.102e-5
0.855, -2.826e-6, -1.109e-5
0.860, -2.841e-6, -1.116e-5
0.865, -2.852e-6, -1.123e-5
0.870, -2.858e-6, -1.130e-5
0.875, -2.873e-6, -1.137e-5
0.880, -2.888e-6, -1.145e-5
0.885, -2.893e-6, -1.152e-5
0.890, -2.909e-6, -1.159e-5
0.895, -2.926e-6, -1.167e-5
0.900, -2.938e-6, -1.174e-5
0.905, -2.948e-6, -1.181e-5
0.910, -2.961e-6, -1.189e-5
0.915, -2.977e-6, -1.196e-5
0.920, -2.995e-6, -1.204e-5
0.925, -3.002e-6, -1.211e-5
0.930, -3.020e-6, -1.219e-5
0.935, -3.027e-6, -1.226e-5
0.940, -3.045e-6, -1.234e-5
0.945, -3.055e-6, -1.241e-5
0.950, -3.068e-6, -1.249e-5
0.955, -3.080e-6, -1.257e-5
0.960, -3.094e-6, -1.265e-5
0.965, -3.101e-6, -1.272e-5
0.970, -3.111e-6, -1.280e-5
0.975, -3.123e-6, -1.288e-5
0.980, -3.136e-6, -1.296e-5
0.985, -3.142e-6, -1.304e-5
0.990, -3.152e-6, -1.311e-5
0.995, -3.163e-6, -1.319e-5
1.000, -3.177e-6, -1.327e-5
1.005, -3.183e-6, -1.335e-5
1.010, -3.191e-6, -1.343e-5
1.015, -3.196e-6, -1.351e-5
1.020, -3.210e-6, -1.359e-5
1.025, -3.223e-6, -1.367e-5
1.030, -3.228e-6, -1.375e-5
1.035, -3.229e-6, -1.383e-5
1.040, -3.241e-6, -1.392e-5
1.045, -3.250e-6, -1.400e-5
1.050, -3.256e-6, -1.408e-5
1.055, -3.270e-6, -1.416e-5
1.060, -3.276e-6, -1.424e-5
1.065, -3.274e-6, -1.432e-5
1.070, -3.289e-6, -1.441e-5
1.075, -3.297e-6, -1.449e-5
1.080, -3.303e-6, -1.457e-5
1.085, -3.306e-6, -1.465e-5
1.090, -3.319e-6, -1.474e-5
1.095, -3.324e-6, -1.482e-5
1.100, -3.343e-6, -1.490e-5
1.105, -3.349e-6, -1.499e-5
1.110, -3.359e-6, -1.507e-5
1.115, -3.368e-6, -1.516e-5
1.120, -3.386e-6, -1.524e-5
1.125, -3.396e-6, -1.532e-5
1.130, -3.411e-6, -1.541e-5
1.135, -3.424e-6, -1.550e-5
1.140, -3.444e-6, -1.558e-5
1.145, -3.458e-6, -1.567e-5
1.150, -2.903e-6, -1.574e-5

Segment 10:
1.145, -2.289e-6, -1.580e-5
1.140, -1.883e-6, -1.584e-5
1.135, -1.556e-6, -1.588e-5
1.130, -1.314e-6, -1.592e-5
1.125, -1.119e-6, -1.594e-5
1.120, -9.656e-7, -1.597e-5
1.115, -8.266e-7, -1.599e-5
1.110, -7.176e-7, -1.601e-5
1.105, -6.209e-7, -1.602e-5
1.100, -5.440e-7, -1.604e-5
1.095, -4.735e-7, -1.605e-5
1.090, -4.094e-7, -1.606e-5
1.085, -3.561e-7, -1.607e-5
1.080, -3.140e-7, -1.608e-5
1.075, -2.675e-7, -1.608e-5
1.070, -2.322e-7, -1.609e-5
1.065, -1.956e-7, -1.609e-5
1.060, -1.730e-7, -1.610e-5
1.055, -1.348e-7, -1.610e-5
1.050, -1.158e-7, -1.610e-5
1.045, -8.444e-8, -1.611e-5
1.040, -7.187e-8, -1.611e-5
1.035, -4.071e-8, -1.611e-5
1.030, -2.543e-8, -1.611e-5
1.025, -4.420e-9, -1.611e-5
1.020, 7.944e-9, -1.611e-5
1.015, 2.484e-8, -1.611e-5
1.010, 3.783e-8, -1.611e-5
1.005, 5.244e-8, -1.611e-5
1.000, 6.444e-8, -1.610e-5
0.995, 7.622e-8, -1.610e-5
0.990, 8.730e-8, -1.610e-5
0.985, 9.980e-8, -1.610e-5
0.980, 1.078e-7, -1.609e-5
0.975, 1.210e-7, -1.609e-5
0.970, 1.303e-7, -1.609e-5
0.965, 1.405e-7, -1.609e-5
0.960, 1.474e-7, -1.608e-5
0.955, 1.616e-7, -1.608e-5
0.950, 1.672e-7, -1.607e-5
0.945, 1.771e-7, -1.607e-5
0.940, 1.810e-7, -1.606e-5
0.935, 1.938e-7, -1.606e-5
0.930, 2.007e-7, -1.605e-5
0.925, 2.087e-7, -1.605e-5
0.920, 2.146e-7, -1.604e-5
0.915, 2.300e-7, -1.604e-5
0.910, 2.356e-7, -1.603e-5
0.905, 2.371e-7, -1.603e-5
0.900, 2.481e-7, -1.602e-5
0.895, 2.618e-7, -1.601e-5
0.890, 2.661e-7, -1.601e-5
0.885, 2.773e-7, -1.600e-5
0.880, 2.823e-7, -1.599e-5
0.875, 2.864e-7, -1.599e-5
0.870, 2.990e-7, -1.598e-5
0.865, 3.113e-7, -1.597e-5
0.860, 3.125e-7, -1.596e-5
0.855, 3.237e-7, -1.595e-5
0.850, 3.325e-7, -1.595e-5
0.845, 3.444e-7, -1.594e-5
0.840, 3.491e-7, -1.593e-5
0.835, 3.616e-7, -1.592e-5
0.830, 3.705e-7, -1.591e-5
0.825, 3.821e-7, -1.590e-5
0.820, 3.837e-7, -1.589e-5
0.815, 4.048e-7, -1.588e-5
0.810, 4.111e-7, -1.587e-5
0.805, 4.265e-7, -1.586e-5
0.800, 4.303e-7, -1.585e-5
0.795, 4.514e-7, -1.584e-5
0.790, 4.559e-7, -1.583e-5
0.785, 4.722e-7, -1.582e-5
0.780, 4.791e-7, -1.580e-5
0.775, 4.983e-7, -1.579e-5
0.770, 5.060e-7, -1.578e-5
0.765, 5.227e-7, -1.576e-5
0.760, 5.332e-7, -1.575e-5
0.755, 5.521e-7, -1.574e-5
0.750, 5.662e-7, -1.572e-5
0.745, 5.830e-7, -1.571e-5
0.740, 5.946e-7, -1.569e-5
0.735, 6.193e-7, -1.568e-5
0.730, 6.338e-7, -1.566e-5
0.725, 6.490e-7, -1.565e-5
0.720, 6.684e-7, -1.563e-5
0.715, 6.858e-7, -1.561e-5
0.710, 7.105e-7, -1.560e-5
0.705, 7.292e-7, -1.558e-5
0.700, 7.503e-7, -1.556e-5
0.695, 7.760e-7, -1.554e-5
0.690, 8.003e-7, -1.552e-5
0.685, 8.274e-7, -1.550e-5
0.680, 8.492e-7, -1.548e-5
0.675, 8.799e-7, -1.545e-5
0.670, 9.060e-7, -1.543e-5
0.665, 9.353e-7, -1.541e-5
0.660, 9.612e-7, -1.538e-5
0.655, 1.004e-6, -1.536e-5
0.650, 1.035e-6, -1.533e-5
0.645, 1.075e-6, -1.531e-5
0.640, 1.103e-6, -1.528e-5
0.635, 1.147e-6, -1.525e-5
0.630, 1.185e-6, -1.522e-5
0.625, 1.233e-6, -1.519e-5
0.620, 1.276e-6, -1.516e-5
0.615, 1.325e-6, -1.513e-5
0.610, 1.379e-6, -1.509e-5
0.605, 1.446e-6, -1.505e-5
0.600, 1.500e-6, -1.502e-5
0.595, 1.564e-6, -1.498e-5
0.590, 1.631e-6, -1.494e-5
0.585, 1.698e-6, -1.489e-5
0.580, 1.765e-6, -1.485e-5
0.575, 1.840e-6, -1.480e-5
0.570, 1.921e-6, -1.476e-5
0.565, 2.008e-6, -1.471e-5
0.560, 2.090e-6, -1.465e-5
0.555, 2.190e-6, -1.460e-5
0.550, 2.283e-6, -1.454e-5
0.545, 2.399e-6, -1.448e-5
0.540, 2.507e-6, -1.442e-5
0.535, 2.630e-6, -1.435e-5
0.530, 2.756e-6, -1.428e-5
0.525, 2.887e-6, -1.421e-5
0.520, 3.031e-6, -1.414e-5
0.515, 3.181e-6, -1.406e-5
0.510, 3.337e-6, -1.397e-5
0.505, 3.507e-6, -1.389e-5
0.500, 3.665e-6, -1.379e-5
0.495, 3.845e-6, -1.370e-5
0.490, 4.028e-6, -1.360e-5
0.485, 4.221e-6, -1.349e-5
0.480, 4.411e-6, -1.338e-5
0.475, 4.624e-6, -1.327e-5
0.470, 4.817e-6, -1.315e-5
0.465, 5.013e-6, -1.302e-5
0.460, 5.191e-6, -1.289e-5
0.455, 5.373e-6, -1.276e-5
0.450, 5.543e-6, -1.262e-5
0.445, 5.699e-6, -1.248e-5
0.440, 5.830e-6, -1.233e-5
0.435, 5.953e-6, -1.218e-5
0.430, 6.041e-6, -1.203e-5
0.425, 6.114e-6, -1.188e-5
0.420, 6.143e-6, -1.172e-5
0.415, 6.144e-6, -1.157e-5
0.410, 6.091e-6, -1.142e-5
0.405, 6.028e-6, -1.127e-5
0.400, 5.930e-6, -1.112e-5
0.395, 5.811e-6, -1.097e-5
0.390, 5.660e-6, -1.083e-5
0.385, 5.496e-6, -1.069e-5
0.380, 5.303e-6, -1.056e-5
0.375, 5.103e-6, -1.043e-5
0.370, 4.886e-6, -1.031e-5
0.365, 4.673e-6, -1.020e-5
0.360, 4.425e-6, -1.008e-5
0.355, 4.206e-6, -9.980e-6
0.350, 3.983e-6, -9.880e-6
0.345, 3.770e-6, -9.786e-6
0.340, 3.561e-6, -9.697e-6
0.335, 3.370e-6, -9.613e-6
0.330, 3.186e-6, -9.533e-6
0.325, 3.005e-6, -9.458e-6
0.320, 2.834e-6, -9.387e-6
0.315, 2.680e-6, -9.320e-6
0.310, 2.531e-6, -9.257e-6
0.305, 2.399e-6, -9.197e-6
0.300, 2.267e-6, -9.140e-6
0.295, 2.154e-6, -9.086e-6
0.290, 2.041e-6, -9.035e-6
0.285, 1.945e-6, -8.987e-6
0.280, 1.845e-6, -8.940e-6
0.275, 1.758e-6, -8.897e-6
0.270, 1.676e-6, -8.855e-6
0.265, 1.606e-6, -8.814e-6
0.260, 1.527e-6, -8.776e-6
0.255, 1.464e-6, -8.740e-6
0.250, 1.381e-6, -8.705e-6
0.245, 1.321e-6, -8.672e-6
0.240, 1.263e-6, -8.641e-6
0.235, 1.216e-6, -8.610e-6
0.230, 1.163e-6, -8.581e-6
0.225, 1.120e-6, -8.553e-6
0.220, 1.072e-6, -8.526e-6
0.215, 1.035e-6, -8.500e-6
0.210, 9.920e-7, -8.476e-6
0.205, 9.552e-7, -8.452e-6
0.200, 9.121e-7, -8.429e-6
0.195, 8.826e-7, -8.407e-6
0.190, 8.526e-7, -8.386e-6
0.185, 8.260e-7, -8.365e-6
0.180, 7.957e-7, -8.345e-6
0.175, 7.717e-7, -8.326e-6
0.170, 7.434e-7, -8.307e-6
0.165, 7.214e-7, -8.289e-6
0.160, 6.983e-7, -8.272e-6
0.155, 6.720e-7, -8.255e-6
0.150, 6.602e-7, -8.238e-6
0.145, 6.399e-7, -8.222e-6
0.140, 6.225e-7, -8.207e-6
0.135, 6.142e-7, -8.191e-6
0.130, 6.009e-7, -8.176e-6
0.125, 5.881e-7, -8.162e-6
0.120, 5.700e-7, -8.147e-6
0.115, 5.638e-7, -8.133e-6
0.110, 5.546e-7, -8.120e-6
0.105, 5.507e-7, -8.106e-6
0.100, 5.382e-7, -8.092e-6
0.095, 5.355e-7, -8.079e-6
0.090, 5.249e-7, -8.066e-6
0.085, 5.239e-7, -8.053e-6
0.080, 5.173e-7, -8.040e-6
0.075, 5.194e-7, -8.027e-6
0.070, 5.184e-7, -8.014e-6
0.065, 5.208e-7, -8.001e-6
0.060, 5.211e-7, -7.988e-6
0.055, 5.308e-7, -7.974e-6
0.050, 5.375e-7, -7.961e-6
0.045, 5.494e-7, -7.947e-6
0.040, 5.582e-7, -7.933e-6
0.035, 5.764e-7, -7.919e-6
0.030, 5.937e-7, -7.904e-6
0.025, 6.163e-7, -7.889e-6
0.020, 6.420e-7, -7.873e-6
0.015, 6.686e-7, -7.856e-6
0.010, 7.093e-7, -7.838e-6
0.005, 7.476e-7, -7.820e-6
0.000, 7.869e-7, -7.800e-6
-0.005, 8.518e-7, -7.779e-6
-0.010, 9.178e-7, -7.756e-6
-0.015, 9.924e-7, -7.731e-6
-0.020, 1.084e-6, -7.704e-6
-0.025, 1.187e-6, -7.674e-6
-0.030, 1.313e-6, -7.641e-6
-0.035, 1.446e-6, -7.605e-6
-0.040, 1.580e-6, -7.566e-6
-0.045, 1.722e-6, -7.523e-6
-0.050, 1.854e-6, -7.476e-6
-0.055, 1.988e-6, -7.426e-6
-0.060, 2.093e-6, -7.374e-6
-0.065, 2.214e-6, -7.319e-6
-0.070, 2.303e-6, -7.261e-6
-0.075, 2.404e-6, -7.201e-6
-0.080, 2.462e-6, -7.140e-6
-0.085, 2.529e-6, -7.076e-6
-0.090, 2.585e-6, -7.012e-6
-0.095, 2.644e-6, -6.946e-6
-0.100, 2.671e-6, -6.879e-6
-0.105, 2.683e-6, -6.812e-6
-0.110, 2.706e-6, -6.744e-6
-0.115, 2.706e-6, -6.676e-6
-0.120, 2.699e-6, -6.609e-6
-0.125, 2.704e-6, -6.541e-6
-0.130, 2.715e-6, -6.473e-6
-0.135, 2.739e-6, -6.405e-6
-0.140, 2.765e-6, -6.336e-6
-0.145, 2.825e-6, -6.265e-6
-0.150, 2.910e-6, -6.193e-6
-0.155, 3.004e-6, -6.117e-6
-0.160, 3.111e-6, -6.040e-6
-0.165, 3.250e-6, -5.958e-6
-0.170, 3.430e-6, -5.873e-6
-0.175, 3.623e-6, -5.782e-6
-0.180, 3.814e-6, -5.687e-6
-0.185, 4.023e-6, -5.586e-6
-0.190, 4.232e-6, -5.480e-6
-0.195, 4.449e-6, -5.369e-6
-0.200, 4.623e-6, -5.254e-6
-0.205, 4.797e-6, -5.134e-6
-0.210, 4.970e-6, -5.009e-6
-0.215, 5.122e-6, -4.881e-6
-0.220, 5.202e-6, -4.751e-6
-0.225, 5.300e-6, -4.619e-6
-0.230, 5.393e-6, -4.484e-6
-0.235, 5.435e-6, -4.348e-6
-0.240, 5.418e-6, -4.213e-6
-0.245, 5.411e-6, -4.077e-6
-0.250, 5.403e-6, -3.942e-6
-0.255, 5.361e-6, -3.808e-6
-0.260, 5.321e-6, -3.675e-6
-0.265, 5.288e-6, -3.543e-6
-0.270, 5.269e-6, -3.411e-6
-0.275, 5.296e-6, -3.279e-6
-0.280, 1.538e-6, -3.240e-6
