Nov. 18, 2020   13:46:11
Cyclic Voltammetry
File: c:\documents and settings\administrator\×ÀÃæ\wyz\empty01.txt
Data Source:  Experiment
Instrument Model:  CHI600B
Header: 
Note: 

Init E (V) = 0.65
High E (V) = 1.15
Low E (V) = -0.28
Init P/N = P
Scan Rate (V/s) = 0.1
Segment = 10
Sample Interval (V) = 0.005
Quiet Time (sec) = 2
Sensitivity (A/V) = 1e-5

Segment 1:

Segment 2:
Ep = 0.420V
ip = 1.666e-6A
Ah = 1.451e-6C

Ep = -0.275V
ip = 1.035e-6A
Ah = 8.468e-7C

Segment 3:
Ep = 1.145V
ip = -5.086e-8A
Ah = -1.641e-8C

Segment 4:
Ep = 0.420V
ip = 1.720e-6A
Ah = 1.599e-6C

Segment 5:
Ep = 1.145V
ip = -3.585e-8A
Ah = -8.030e-9C

Segment 6:
Ep = 0.425V
ip = 1.898e-6A
Ah = 1.662e-6C

Segment 7:

Segment 8:
Ep = 0.425V
ip = 1.926e-6A
Ah = 1.723e-6C

Segment 9:
Ep = 1.145V
ip = -7.337e-8A
Ah = -2.507e-8C

Segment 10:
Ep = 0.425V
ip = 1.898e-6A
Ah = 1.696e-6C

Potential/V, Current/A, Charge/C

Segment 1:
0.655, -7.619e-7, -3.809e-8
0.660, -7.806e-7, -7.712e-8
0.665, -8.038e-7, -1.173e-7
0.670, -8.289e-7, -1.588e-7
0.675, -8.580e-7, -2.017e-7
0.680, -8.910e-7, -2.462e-7
0.685, -9.297e-7, -2.927e-7
0.690, -9.609e-7, -3.407e-7
0.695, -9.985e-7, -3.907e-7
0.700, -1.033e-6, -4.423e-7
0.705, -1.067e-6, -4.957e-7
0.710, -1.101e-6, -5.507e-7
0.715, -1.140e-6, -6.077e-7
0.720, -1.166e-6, -6.660e-7
0.725, -1.199e-6, -7.260e-7
0.730, -1.228e-6, -7.874e-7
0.735, -1.253e-6, -8.500e-7
0.740, -1.283e-6, -9.142e-7
0.745, -1.310e-6, -9.797e-7
0.750, -1.337e-6, -1.047e-6
0.755, -1.356e-6, -1.114e-6
0.760, -1.381e-6, -1.183e-6
0.765, -1.399e-6, -1.253e-6
0.770, -1.420e-6, -1.324e-6
0.775, -1.441e-6, -1.396e-6
0.780, -1.458e-6, -1.469e-6
0.785, -1.482e-6, -1.543e-6
0.790, -1.495e-6, -1.618e-6
0.795, -1.515e-6, -1.694e-6
0.800, -1.532e-6, -1.770e-6
0.805, -1.545e-6, -1.848e-6
0.810, -1.561e-6, -1.926e-6
0.815, -1.582e-6, -2.005e-6
0.820, -1.590e-6, -2.084e-6
0.825, -1.610e-6, -2.165e-6
0.830, -1.629e-6, -2.246e-6
0.835, -1.641e-6, -2.328e-6
0.840, -1.659e-6, -2.411e-6
0.845, -1.682e-6, -2.495e-6
0.850, -1.703e-6, -2.581e-6
0.855, -1.726e-6, -2.667e-6
0.860, -1.741e-6, -2.754e-6
0.865, -1.764e-6, -2.842e-6
0.870, -1.781e-6, -2.931e-6
0.875, -1.798e-6, -3.021e-6
0.880, -1.818e-6, -3.112e-6
0.885, -1.834e-6, -3.204e-6
0.890, -1.855e-6, -3.296e-6
0.895, -1.878e-6, -3.390e-6
0.900, -1.892e-6, -3.485e-6
0.905, -1.916e-6, -3.581e-6
0.910, -1.929e-6, -3.677e-6
0.915, -1.950e-6, -3.775e-6
0.920, -1.974e-6, -3.873e-6
0.925, -1.992e-6, -3.973e-6
0.930, -2.015e-6, -4.074e-6
0.935, -2.032e-6, -4.175e-6
0.940, -2.053e-6, -4.278e-6
0.945, -2.079e-6, -4.382e-6
0.950, -2.103e-6, -4.487e-6
0.955, -2.118e-6, -4.593e-6
0.960, -2.136e-6, -4.700e-6
0.965, -2.163e-6, -4.808e-6
0.970, -2.180e-6, -4.917e-6
0.975, -2.205e-6, -5.027e-6
0.980, -2.222e-6, -5.138e-6
0.985, -2.246e-6, -5.251e-6
0.990, -2.267e-6, -5.364e-6
0.995, -2.287e-6, -5.478e-6
1.000, -2.308e-6, -5.594e-6
1.005, -2.325e-6, -5.710e-6
1.010, -2.346e-6, -5.827e-6
1.015, -2.367e-6, -5.946e-6
1.020, -2.386e-6, -6.065e-6
1.025, -2.407e-6, -6.185e-6
1.030, -2.421e-6, -6.306e-6
1.035, -2.440e-6, -6.428e-6
1.040, -2.461e-6, -6.551e-6
1.045, -2.480e-6, -6.675e-6
1.050, -2.498e-6, -6.800e-6
1.055, -2.510e-6, -6.926e-6
1.060, -2.522e-6, -7.052e-6
1.065, -2.540e-6, -7.179e-6
1.070, -2.556e-6, -7.307e-6
1.075, -2.568e-6, -7.435e-6
1.080, -2.581e-6, -7.564e-6
1.085, -2.597e-6, -7.694e-6
1.090, -2.608e-6, -7.824e-6
1.095, -2.619e-6, -7.955e-6
1.100, -2.631e-6, -8.087e-6
1.105, -2.645e-6, -8.219e-6
1.110, -2.655e-6, -8.352e-6
1.115, -2.665e-6, -8.485e-6
1.120, -2.672e-6, -8.619e-6
1.125, -2.686e-6, -8.753e-6
1.130, -2.694e-6, -8.888e-6
1.135, -2.704e-6, -9.023e-6
1.140, -2.710e-6, -9.159e-6
1.145, -2.721e-6, -9.295e-6
1.150, -2.448e-6, -9.417e-6

Segment 2:
1.145, -2.012e-6, -9.518e-6
1.140, -1.691e-6, -9.602e-6
1.135, -1.440e-6, -9.674e-6
1.130, -1.242e-6, -9.736e-6
1.125, -1.084e-6, -9.790e-6
1.120, -9.483e-7, -9.838e-6
1.115, -8.376e-7, -9.880e-6
1.110, -7.431e-7, -9.917e-6
1.105, -6.598e-7, -9.950e-6
1.100, -5.874e-7, -9.979e-6
1.095, -5.253e-7, -1.001e-5
1.090, -4.726e-7, -1.003e-5
1.085, -4.251e-7, -1.005e-5
1.080, -3.811e-7, -1.007e-5
1.075, -3.468e-7, -1.009e-5
1.070, -3.139e-7, -1.010e-5
1.065, -2.825e-7, -1.012e-5
1.060, -2.528e-7, -1.013e-5
1.055, -2.321e-7, -1.014e-5
1.050, -2.075e-7, -1.015e-5
1.045, -1.876e-7, -1.016e-5
1.040, -1.695e-7, -1.017e-5
1.035, -1.551e-7, -1.018e-5
1.030, -1.421e-7, -1.018e-5
1.025, -1.238e-7, -1.019e-5
1.020, -1.116e-7, -1.020e-5
1.015, -9.721e-8, -1.020e-5
1.010, -8.555e-8, -1.020e-5
1.005, -7.552e-8, -1.021e-5
1.000, -5.987e-8, -1.021e-5
0.995, -5.054e-8, -1.021e-5
0.990, -3.655e-8, -1.022e-5
0.985, -3.013e-8, -1.022e-5
0.980, -1.886e-8, -1.022e-5
0.975, -1.350e-8, -1.022e-5
0.970, -3.496e-9, -1.022e-5
0.965, 6.271e-10, -1.022e-5
0.960, 8.907e-9, -1.022e-5
0.955, 1.375e-8, -1.022e-5
0.950, 2.087e-8, -1.022e-5
0.945, 2.583e-8, -1.022e-5
0.940, 3.436e-8, -1.021e-5
0.935, 3.671e-8, -1.021e-5
0.930, 4.604e-8, -1.021e-5
0.925, 4.826e-8, -1.021e-5
0.920, 5.597e-8, -1.020e-5
0.915, 5.895e-8, -1.020e-5
0.910, 6.580e-8, -1.020e-5
0.905, 6.958e-8, -1.019e-5
0.900, 7.673e-8, -1.019e-5
0.895, 8.078e-8, -1.019e-5
0.890, 8.811e-8, -1.018e-5
0.885, 8.998e-8, -1.018e-5
0.880, 9.793e-8, -1.017e-5
0.875, 1.003e-7, -1.017e-5
0.870, 1.072e-7, -1.016e-5
0.865, 1.112e-7, -1.016e-5
0.860, 1.161e-7, -1.015e-5
0.855, 1.223e-7, -1.015e-5
0.850, 1.286e-7, -1.014e-5
0.845, 1.330e-7, -1.013e-5
0.840, 1.398e-7, -1.013e-5
0.835, 1.410e-7, -1.012e-5
0.830, 1.496e-7, -1.011e-5
0.825, 1.512e-7, -1.010e-5
0.820, 1.567e-7, -1.010e-5
0.815, 1.638e-7, -1.009e-5
0.810, 1.709e-7, -1.008e-5
0.805, 1.773e-7, -1.007e-5
0.800, 1.839e-7, -1.006e-5
0.795, 1.886e-7, -1.005e-5
0.790, 1.959e-7, -1.004e-5
0.785, 1.995e-7, -1.003e-5
0.780, 2.073e-7, -1.002e-5
0.775, 2.140e-7, -1.001e-5
0.770, 2.225e-7, -9.999e-6
0.765, 2.300e-7, -9.988e-6
0.760, 2.391e-7, -9.976e-6
0.755, 2.447e-7, -9.964e-6
0.750, 2.530e-7, -9.951e-6
0.745, 2.621e-7, -9.938e-6
0.740, 2.693e-7, -9.924e-6
0.735, 2.787e-7, -9.910e-6
0.730, 2.851e-7, -9.896e-6
0.725, 2.922e-7, -9.882e-6
0.720, 3.027e-7, -9.866e-6
0.715, 3.114e-7, -9.851e-6
0.710, 3.255e-7, -9.835e-6
0.705, 3.336e-7, -9.818e-6
0.700, 3.450e-7, -9.801e-6
0.695, 3.546e-7, -9.783e-6
0.690, 3.704e-7, -9.764e-6
0.685, 3.821e-7, -9.745e-6
0.680, 3.933e-7, -9.726e-6
0.675, 4.039e-7, -9.705e-6
0.670, 4.230e-7, -9.684e-6
0.665, 4.353e-7, -9.663e-6
0.660, 4.513e-7, -9.640e-6
0.655, 4.680e-7, -9.617e-6
0.650, 4.854e-7, -9.592e-6
0.645, 4.962e-7, -9.567e-6
0.640, 5.209e-7, -9.541e-6
0.635, 5.360e-7, -9.515e-6
0.630, 5.578e-7, -9.487e-6
0.625, 5.797e-7, -9.458e-6
0.620, 6.018e-7, -9.428e-6
0.615, 6.279e-7, -9.396e-6
0.610, 6.510e-7, -9.364e-6
0.605, 6.746e-7, -9.330e-6
0.600, 7.016e-7, -9.295e-6
0.595, 7.304e-7, -9.258e-6
0.590, 7.641e-7, -9.220e-6
0.585, 7.911e-7, -9.181e-6
0.580, 8.323e-7, -9.139e-6
0.575, 8.666e-7, -9.096e-6
0.570, 9.010e-7, -9.051e-6
0.565, 9.367e-7, -9.004e-6
0.560, 9.852e-7, -8.955e-6
0.555, 1.032e-6, -8.903e-6
0.550, 1.072e-6, -8.849e-6
0.545, 1.125e-6, -8.793e-6
0.540, 1.182e-6, -8.734e-6
0.535, 1.236e-6, -8.672e-6
0.530, 1.294e-6, -8.607e-6
0.525, 1.356e-6, -8.540e-6
0.520, 1.445e-6, -8.467e-6
0.515, 1.513e-6, -8.392e-6
0.510, 1.586e-6, -8.312e-6
0.505, 1.663e-6, -8.229e-6
0.500, 1.744e-6, -8.142e-6
0.495, 1.826e-6, -8.051e-6
0.490, 1.911e-6, -7.955e-6
0.485, 1.998e-6, -7.855e-6
0.480, 2.089e-6, -7.751e-6
0.475, 2.172e-6, -7.642e-6
0.470, 2.265e-6, -7.529e-6
0.465, 2.354e-6, -7.411e-6
0.460, 2.442e-6, -7.289e-6
0.455, 2.517e-6, -7.163e-6
0.450, 2.599e-6, -7.033e-6
0.445, 2.664e-6, -6.900e-6
0.440, 2.729e-6, -6.764e-6
0.435, 2.777e-6, -6.625e-6
0.430, 2.822e-6, -6.484e-6
0.425, 2.837e-6, -6.342e-6
0.420, 2.858e-6, -6.199e-6
0.415, 2.850e-6, -6.057e-6
0.410, 2.830e-6, -5.915e-6
0.405, 2.798e-6, -5.775e-6
0.400, 2.756e-6, -5.637e-6
0.395, 2.698e-6, -5.502e-6
0.390, 2.632e-6, -5.371e-6
0.385, 2.556e-6, -5.243e-6
0.380, 2.471e-6, -5.120e-6
0.375, 2.380e-6, -5.001e-6
0.370, 2.282e-6, -4.886e-6
0.365, 2.186e-6, -4.777e-6
0.360, 2.084e-6, -4.673e-6
0.355, 1.985e-6, -4.574e-6
0.350, 1.888e-6, -4.479e-6
0.345, 1.794e-6, -4.390e-6
0.340, 1.704e-6, -4.304e-6
0.335, 1.615e-6, -4.224e-6
0.330, 1.531e-6, -4.147e-6
0.325, 1.448e-6, -4.075e-6
0.320, 1.355e-6, -4.007e-6
0.315, 1.283e-6, -3.943e-6
0.310, 1.219e-6, -3.882e-6
0.305, 1.154e-6, -3.824e-6
0.300, 1.095e-6, -3.769e-6
0.295, 1.042e-6, -3.717e-6
0.290, 9.869e-7, -3.668e-6
0.285, 9.342e-7, -3.621e-6
0.280, 8.916e-7, -3.577e-6
0.275, 8.549e-7, -3.534e-6
0.270, 8.170e-7, -3.493e-6
0.265, 7.743e-7, -3.454e-6
0.260, 7.380e-7, -3.417e-6
0.255, 7.082e-7, -3.382e-6
0.250, 6.789e-7, -3.348e-6
0.245, 6.514e-7, -3.315e-6
0.240, 6.294e-7, -3.284e-6
0.235, 5.961e-7, -3.254e-6
0.230, 5.815e-7, -3.225e-6
0.225, 5.526e-7, -3.197e-6
0.220, 5.343e-7, -3.171e-6
0.215, 5.167e-7, -3.145e-6
0.210, 4.924e-7, -3.120e-6
0.205, 4.825e-7, -3.096e-6
0.200, 4.688e-7, -3.073e-6
0.195, 4.416e-7, -3.051e-6
0.190, 4.359e-7, -3.029e-6
0.185, 4.219e-7, -3.008e-6
0.180, 4.044e-7, -2.988e-6
0.175, 3.888e-7, -2.968e-6
0.170, 3.864e-7, -2.949e-6
0.165, 3.762e-7, -2.930e-6
0.160, 3.651e-7, -2.912e-6
0.155, 3.470e-7, -2.894e-6
0.150, 3.420e-7, -2.877e-6
0.145, 3.377e-7, -2.860e-6
0.140, 3.367e-7, -2.844e-6
0.135, 3.307e-7, -2.827e-6
0.130, 3.270e-7, -2.811e-6
0.125, 3.147e-7, -2.795e-6
0.120, 3.123e-7, -2.779e-6
0.115, 3.024e-7, -2.764e-6
0.110, 3.015e-7, -2.749e-6
0.105, 2.956e-7, -2.734e-6
0.100, 2.958e-7, -2.720e-6
0.095, 2.921e-7, -2.705e-6
0.090, 2.931e-7, -2.690e-6
0.085, 2.911e-7, -2.676e-6
0.080, 2.923e-7, -2.661e-6
0.075, 2.908e-7, -2.647e-6
0.070, 2.930e-7, -2.632e-6
0.065, 2.922e-7, -2.617e-6
0.060, 2.956e-7, -2.603e-6
0.055, 2.964e-7, -2.588e-6
0.050, 3.042e-7, -2.573e-6
0.045, 3.077e-7, -2.557e-6
0.040, 3.197e-7, -2.541e-6
0.035, 3.257e-7, -2.525e-6
0.030, 3.352e-7, -2.508e-6
0.025, 3.396e-7, -2.491e-6
0.020, 3.551e-7, -2.473e-6
0.015, 3.678e-7, -2.455e-6
0.010, 3.838e-7, -2.436e-6
0.005, 3.983e-7, -2.416e-6
0.000, 4.208e-7, -2.395e-6
-0.005, 4.461e-7, -2.373e-6
-0.010, 4.744e-7, -2.349e-6
-0.015, 5.049e-7, -2.324e-6
-0.020, 5.464e-7, -2.296e-6
-0.025, 5.876e-7, -2.267e-6
-0.030, 6.390e-7, -2.235e-6
-0.035, 6.823e-7, -2.201e-6
-0.040, 7.430e-7, -2.164e-6
-0.045, 7.935e-7, -2.124e-6
-0.050, 8.574e-7, -2.081e-6
-0.055, 9.053e-7, -2.036e-6
-0.060, 9.589e-7, -1.988e-6
-0.065, 1.001e-6, -1.938e-6
-0.070, 1.050e-6, -1.885e-6
-0.075, 1.089e-6, -1.831e-6
-0.080, 1.132e-6, -1.774e-6
-0.085, 1.166e-6, -1.716e-6
-0.090, 1.200e-6, -1.656e-6
-0.095, 1.231e-6, -1.594e-6
-0.100, 1.266e-6, -1.531e-6
-0.105, 1.280e-6, -1.467e-6
-0.110, 1.307e-6, -1.402e-6
-0.115, 1.318e-6, -1.336e-6
-0.120, 1.347e-6, -1.269e-6
-0.125, 1.361e-6, -1.200e-6
-0.130, 1.385e-6, -1.131e-6
-0.135, 1.402e-6, -1.061e-6
-0.140, 1.438e-6, -9.893e-7
-0.145, 1.469e-6, -9.159e-7
-0.150, 1.518e-6, -8.400e-7
-0.155, 1.566e-6, -7.617e-7
-0.160, 1.623e-6, -6.805e-7
-0.165, 1.684e-6, -5.963e-7
-0.170, 1.761e-6, -5.083e-7
-0.175, 1.838e-6, -4.164e-7
-0.180, 1.933e-6, -3.197e-7
-0.185, 2.015e-6, -2.190e-7
-0.190, 2.102e-6, -1.139e-7
-0.195, 2.185e-6, -4.622e-9
-0.200, 2.271e-6, 1.089e-7
-0.205, 2.353e-6, 2.265e-7
-0.210, 2.435e-6, 3.483e-7
-0.215, 2.501e-6, 4.733e-7
-0.220, 2.582e-6, 6.024e-7
-0.225, 2.635e-6, 7.342e-7
-0.230, 2.698e-6, 8.691e-7
-0.235, 2.730e-6, 1.006e-6
-0.240, 2.764e-6, 1.144e-6
-0.245, 2.786e-6, 1.283e-6
-0.250, 2.814e-6, 1.424e-6
-0.255, 2.812e-6, 1.564e-6
-0.260, 2.838e-6, 1.706e-6
-0.265, 2.864e-6, 1.850e-6
-0.270, 2.919e-6, 1.995e-6
-0.275, 2.990e-6, 2.145e-6
-0.280, 1.134e-6, 2.202e-6

Segment 3:
-0.275, -3.536e-7, 2.184e-6
-0.270, -7.534e-7, 2.146e-6
-0.265, -9.895e-7, 2.097e-6
-0.260, -1.133e-6, 2.040e-6
-0.255, -1.242e-6, 1.978e-6
-0.250, -1.327e-6, 1.912e-6
-0.245, -1.404e-6, 1.842e-6
-0.240, -1.460e-6, 1.769e-6
-0.235, -1.513e-6, 1.693e-6
-0.230, -1.553e-6, 1.615e-6
-0.225, -1.584e-6, 1.536e-6
-0.220, -1.599e-6, 1.456e-6
-0.215, -1.611e-6, 1.376e-6
-0.210, -1.608e-6, 1.295e-6
-0.205, -1.609e-6, 1.215e-6
-0.200, -1.592e-6, 1.135e-6
-0.195, -1.579e-6, 1.056e-6
-0.190, -1.567e-6, 9.778e-7
-0.185, -1.548e-6, 9.004e-7
-0.180, -1.522e-6, 8.243e-7
-0.175, -1.487e-6, 7.499e-7
-0.170, -1.441e-6, 6.779e-7
-0.165, -1.402e-6, 6.078e-7
-0.160, -1.352e-6, 5.402e-7
-0.155, -1.314e-6, 4.745e-7
-0.150, -1.278e-6, 4.106e-7
-0.145, -1.258e-6, 3.477e-7
-0.140, -1.229e-6, 2.863e-7
-0.135, -1.219e-6, 2.253e-7
-0.130, -1.207e-6, 1.650e-7
-0.125, -1.204e-6, 1.048e-7
-0.120, -1.200e-6, 4.478e-8
-0.115, -1.199e-6, -1.518e-8
-0.110, -1.200e-6, -7.520e-8
-0.105, -1.208e-6, -1.356e-7
-0.100, -1.205e-6, -1.958e-7
-0.095, -1.211e-6, -2.564e-7
-0.090, -1.206e-6, -3.167e-7
-0.085, -1.214e-6, -3.774e-7
-0.080, -1.217e-6, -4.383e-7
-0.075, -1.228e-6, -4.997e-7
-0.070, -1.233e-6, -5.613e-7
-0.065, -1.245e-6, -6.236e-7
-0.060, -1.245e-6, -6.858e-7
-0.055, -1.239e-6, -7.477e-7
-0.050, -1.215e-6, -8.085e-7
-0.045, -1.178e-6, -8.674e-7
-0.040, -1.115e-6, -9.231e-7
-0.035, -1.048e-6, -9.755e-7
-0.030, -9.641e-7, -1.024e-6
-0.025, -8.836e-7, -1.068e-6
-0.020, -7.947e-7, -1.108e-6
-0.015, -7.213e-7, -1.144e-6
-0.010, -6.537e-7, -1.176e-6
-0.005, -6.005e-7, -1.206e-6
-0.000, -5.457e-7, -1.234e-6
0.005, -5.095e-7, -1.259e-6
0.010, -4.662e-7, -1.282e-6
0.015, -4.392e-7, -1.304e-6
0.020, -4.072e-7, -1.325e-6
0.025, -3.834e-7, -1.344e-6
0.030, -3.579e-7, -1.362e-6
0.035, -3.428e-7, -1.379e-6
0.040, -3.241e-7, -1.395e-6
0.045, -3.116e-7, -1.411e-6
0.050, -2.921e-7, -1.425e-6
0.055, -2.805e-7, -1.439e-6
0.060, -2.673e-7, -1.453e-6
0.065, -2.615e-7, -1.466e-6
0.070, -2.515e-7, -1.478e-6
0.075, -2.478e-7, -1.491e-6
0.080, -2.388e-7, -1.503e-6
0.085, -2.364e-7, -1.515e-6
0.090, -2.294e-7, -1.526e-6
0.095, -2.280e-7, -1.537e-6
0.100, -2.236e-7, -1.549e-6
0.105, -2.215e-7, -1.560e-6
0.110, -2.163e-7, -1.571e-6
0.115, -2.169e-7, -1.581e-6
0.120, -2.119e-7, -1.592e-6
0.125, -2.132e-7, -1.603e-6
0.130, -2.087e-7, -1.613e-6
0.135, -2.109e-7, -1.624e-6
0.140, -2.064e-7, -1.634e-6
0.145, -2.084e-7, -1.644e-6
0.150, -2.053e-7, -1.655e-6
0.155, -2.070e-7, -1.665e-6
0.160, -2.038e-7, -1.675e-6
0.165, -2.060e-7, -1.685e-6
0.170, -2.028e-7, -1.696e-6
0.175, -2.053e-7, -1.706e-6
0.180, -2.022e-7, -1.716e-6
0.185, -2.065e-7, -1.726e-6
0.190, -2.081e-7, -1.737e-6
0.195, -2.139e-7, -1.747e-6
0.200, -2.139e-7, -1.758e-6
0.205, -2.176e-7, -1.769e-6
0.210, -2.157e-7, -1.780e-6
0.215, -2.177e-7, -1.791e-6
0.220, -2.143e-7, -1.801e-6
0.225, -2.161e-7, -1.812e-6
0.230, -2.131e-7, -1.823e-6
0.235, -2.168e-7, -1.834e-6
0.240, -2.146e-7, -1.844e-6
0.245, -2.180e-7, -1.855e-6
0.250, -2.161e-7, -1.866e-6
0.255, -2.195e-7, -1.877e-6
0.260, -2.173e-7, -1.888e-6
0.265, -2.197e-7, -1.899e-6
0.270, -2.177e-7, -1.910e-6
0.275, -2.214e-7, -1.921e-6
0.280, -2.194e-7, -1.932e-6
0.285, -2.230e-7, -1.943e-6
0.290, -2.210e-7, -1.954e-6
0.295, -2.263e-7, -1.965e-6
0.300, -2.259e-7, -1.977e-6
0.305, -2.316e-7, -1.988e-6
0.310, -2.308e-7, -2.000e-6
0.315, -2.366e-7, -2.012e-6
0.320, -2.354e-7, -2.023e-6
0.325, -2.414e-7, -2.035e-6
0.330, -2.422e-7, -2.048e-6
0.335, -2.461e-7, -2.060e-6
0.340, -2.463e-7, -2.072e-6
0.345, -2.510e-7, -2.085e-6
0.350, -2.538e-7, -2.097e-6
0.355, -2.584e-7, -2.110e-6
0.360, -2.596e-7, -2.123e-6
0.365, -2.645e-7, -2.137e-6
0.370, -2.652e-7, -2.150e-6
0.375, -2.723e-7, -2.163e-6
0.380, -2.727e-7, -2.177e-6
0.385, -2.792e-7, -2.191e-6
0.390, -2.786e-7, -2.205e-6
0.395, -2.850e-7, -2.219e-6
0.400, -2.867e-7, -2.234e-6
0.405, -2.952e-7, -2.248e-6
0.410, -2.939e-7, -2.263e-6
0.415, -3.052e-7, -2.278e-6
0.420, -3.081e-7, -2.294e-6
0.425, -3.160e-7, -2.309e-6
0.430, -3.186e-7, -2.325e-6
0.435, -3.269e-7, -2.342e-6
0.440, -3.287e-7, -2.358e-6
0.445, -3.380e-7, -2.375e-6
0.450, -3.455e-7, -2.392e-6
0.455, -3.565e-7, -2.410e-6
0.460, -3.636e-7, -2.428e-6
0.465, -3.752e-7, -2.447e-6
0.470, -3.834e-7, -2.466e-6
0.475, -4.037e-7, -2.486e-6
0.480, -4.173e-7, -2.507e-6
0.485, -4.337e-7, -2.529e-6
0.490, -4.525e-7, -2.552e-6
0.495, -4.728e-7, -2.575e-6
0.500, -4.907e-7, -2.600e-6
0.505, -5.246e-7, -2.626e-6
0.510, -5.557e-7, -2.654e-6
0.515, -5.780e-7, -2.683e-6
0.520, -6.094e-7, -2.713e-6
0.525, -6.377e-7, -2.745e-6
0.530, -6.678e-7, -2.778e-6
0.535, -7.042e-7, -2.814e-6
0.540, -7.271e-7, -2.850e-6
0.545, -7.585e-7, -2.888e-6
0.550, -7.799e-7, -2.927e-6
0.555, -8.102e-7, -2.967e-6
0.560, -8.290e-7, -3.009e-6
0.565, -8.560e-7, -3.052e-6
0.570, -8.729e-7, -3.095e-6
0.575, -8.998e-7, -3.140e-6
0.580, -9.231e-7, -3.187e-6
0.585, -9.510e-7, -3.234e-6
0.590, -9.677e-7, -3.282e-6
0.595, -9.956e-7, -3.332e-6
0.600, -1.012e-6, -3.383e-6
0.605, -1.038e-6, -3.435e-6
0.610, -1.058e-6, -3.488e-6
0.615, -1.082e-6, -3.542e-6
0.620, -1.099e-6, -3.597e-6
0.625, -1.119e-6, -3.653e-6
0.630, -1.139e-6, -3.710e-6
0.635, -1.155e-6, -3.767e-6
0.640, -1.171e-6, -3.826e-6
0.645, -1.192e-6, -3.885e-6
0.650, -1.203e-6, -3.946e-6
0.655, -1.221e-6, -4.007e-6
0.660, -1.235e-6, -4.068e-6
0.665, -1.250e-6, -4.131e-6
0.670, -1.260e-6, -4.194e-6
0.675, -1.277e-6, -4.258e-6
0.680, -1.292e-6, -4.322e-6
0.685, -1.304e-6, -4.387e-6
0.690, -1.319e-6, -4.453e-6
0.695, -1.333e-6, -4.520e-6
0.700, -1.342e-6, -4.587e-6
0.705, -1.350e-6, -4.655e-6
0.710, -1.358e-6, -4.723e-6
0.715, -1.374e-6, -4.791e-6
0.720, -1.380e-6, -4.860e-6
0.725, -1.392e-6, -4.930e-6
0.730, -1.397e-6, -5.000e-6
0.735, -1.406e-6, -5.070e-6
0.740, -1.415e-6, -5.141e-6
0.745, -1.428e-6, -5.212e-6
0.750, -1.437e-6, -5.284e-6
0.755, -1.445e-6, -5.356e-6
0.760, -1.450e-6, -5.429e-6
0.765, -1.458e-6, -5.502e-6
0.770, -1.469e-6, -5.575e-6
0.775, -1.483e-6, -5.649e-6
0.780, -1.490e-6, -5.724e-6
0.785, -1.498e-6, -5.799e-6
0.790, -1.505e-6, -5.874e-6
0.795, -1.522e-6, -5.950e-6
0.800, -1.532e-6, -6.027e-6
0.805, -1.542e-6, -6.104e-6
0.810, -1.547e-6, -6.181e-6
0.815, -1.564e-6, -6.259e-6
0.820, -1.571e-6, -6.338e-6
0.825, -1.588e-6, -6.417e-6
0.830, -1.594e-6, -6.497e-6
0.835, -1.610e-6, -6.577e-6
0.840, -1.626e-6, -6.659e-6
0.845, -1.639e-6, -6.741e-6
0.850, -1.646e-6, -6.823e-6
0.855, -1.666e-6, -6.906e-6
0.860, -1.682e-6, -6.990e-6
0.865, -1.700e-6, -7.075e-6
0.870, -1.718e-6, -7.161e-6
0.875, -1.736e-6, -7.248e-6
0.880, -1.746e-6, -7.335e-6
0.885, -1.768e-6, -7.424e-6
0.890, -1.781e-6, -7.513e-6
0.895, -1.794e-6, -7.602e-6
0.900, -1.810e-6, -7.693e-6
0.905, -1.828e-6, -7.784e-6
0.910, -1.835e-6, -7.876e-6
0.915, -1.851e-6, -7.969e-6
0.920, -1.870e-6, -8.062e-6
0.925, -1.883e-6, -8.156e-6
0.930, -1.890e-6, -8.251e-6
0.935, -1.905e-6, -8.346e-6
0.940, -1.921e-6, -8.442e-6
0.945, -1.931e-6, -8.539e-6
0.950, -1.938e-6, -8.635e-6
0.955, -1.955e-6, -8.733e-6
0.960, -1.969e-6, -8.832e-6
0.965, -1.980e-6, -8.931e-6
0.970, -1.985e-6, -9.030e-6
0.975, -1.996e-6, -9.130e-6
0.980, -2.011e-6, -9.230e-6
0.985, -2.023e-6, -9.331e-6
0.990, -2.028e-6, -9.433e-6
0.995, -2.035e-6, -9.535e-6
1.000, -2.041e-6, -9.637e-6
1.005, -2.051e-6, -9.739e-6
1.010, -2.063e-6, -9.842e-6
1.015, -2.073e-6, -9.946e-6
1.020, -2.088e-6, -1.005e-5
1.025, -2.096e-6, -1.016e-5
1.030, -2.106e-6, -1.026e-5
1.035, -2.110e-6, -1.037e-5
1.040, -2.117e-6, -1.047e-5
1.045, -2.122e-6, -1.058e-5
1.050, -2.125e-6, -1.068e-5
1.055, -2.130e-6, -1.079e-5
1.060, -2.132e-6, -1.090e-5
1.065, -2.140e-6, -1.100e-5
1.070, -2.148e-6, -1.111e-5
1.075, -2.156e-6, -1.122e-5
1.080, -2.165e-6, -1.133e-5
1.085, -2.172e-6, -1.144e-5
1.090, -2.173e-6, -1.154e-5
1.095, -2.179e-6, -1.165e-5
1.100, -2.183e-6, -1.176e-5
1.105, -2.192e-6, -1.187e-5
1.110, -2.199e-6, -1.198e-5
1.115, -2.208e-6, -1.209e-5
1.120, -2.216e-6, -1.220e-5
1.125, -2.223e-6, -1.231e-5
1.130, -2.225e-6, -1.243e-5
1.135, -2.236e-6, -1.254e-5
1.140, -2.246e-6, -1.265e-5
1.145, -2.263e-6, -1.276e-5
1.150, -1.997e-6, -1.286e-5

Segment 4:
1.145, -1.596e-6, -1.294e-5
1.140, -1.330e-6, -1.301e-5
1.135, -1.127e-6, -1.307e-5
1.130, -9.637e-7, -1.311e-5
1.125, -8.332e-7, -1.316e-5
1.120, -7.217e-7, -1.319e-5
1.115, -6.367e-7, -1.322e-5
1.110, -5.570e-7, -1.325e-5
1.105, -4.875e-7, -1.328e-5
1.100, -4.321e-7, -1.330e-5
1.095, -3.861e-7, -1.332e-5
1.090, -3.432e-7, -1.333e-5
1.085, -3.117e-7, -1.335e-5
1.080, -2.720e-7, -1.336e-5
1.075, -2.437e-7, -1.338e-5
1.070, -2.193e-7, -1.339e-5
1.065, -1.931e-7, -1.340e-5
1.060, -1.722e-7, -1.340e-5
1.055, -1.603e-7, -1.341e-5
1.050, -1.453e-7, -1.342e-5
1.045, -1.213e-7, -1.343e-5
1.040, -1.035e-7, -1.343e-5
1.035, -8.723e-8, -1.344e-5
1.030, -7.751e-8, -1.344e-5
1.025, -7.025e-8, -1.344e-5
1.020, -5.303e-8, -1.345e-5
1.015, -4.015e-8, -1.345e-5
1.010, -2.807e-8, -1.345e-5
1.005, -2.511e-8, -1.345e-5
1.000, -1.440e-8, -1.345e-5
0.995, -6.604e-9, -1.345e-5
0.990, 5.576e-9, -1.345e-5
0.985, 1.180e-8, -1.345e-5
0.980, 1.915e-8, -1.345e-5
0.975, 2.017e-8, -1.345e-5
0.970, 2.678e-8, -1.345e-5
0.965, 2.926e-8, -1.345e-5
0.960, 3.848e-8, -1.344e-5
0.955, 4.575e-8, -1.344e-5
0.950, 5.524e-8, -1.344e-5
0.945, 5.967e-8, -1.344e-5
0.940, 6.622e-8, -1.343e-5
0.935, 6.686e-8, -1.343e-5
0.930, 7.249e-8, -1.343e-5
0.925, 7.338e-8, -1.342e-5
0.920, 7.956e-8, -1.342e-5
0.915, 8.363e-8, -1.341e-5
0.910, 9.126e-8, -1.341e-5
0.905, 9.817e-8, -1.340e-5
0.900, 1.057e-7, -1.340e-5
0.895, 1.094e-7, -1.339e-5
0.890, 1.151e-7, -1.339e-5
0.885, 1.162e-7, -1.338e-5
0.880, 1.214e-7, -1.338e-5
0.875, 1.224e-7, -1.337e-5
0.870, 1.276e-7, -1.336e-5
0.865, 1.329e-7, -1.336e-5
0.860, 1.398e-7, -1.335e-5
0.855, 1.460e-7, -1.334e-5
0.850, 1.543e-7, -1.333e-5
0.845, 1.587e-7, -1.333e-5
0.840, 1.642e-7, -1.332e-5
0.835, 1.653e-7, -1.331e-5
0.830, 1.712e-7, -1.330e-5
0.825, 1.728e-7, -1.329e-5
0.820, 1.779e-7, -1.328e-5
0.815, 1.867e-7, -1.327e-5
0.810, 1.955e-7, -1.326e-5
0.805, 2.033e-7, -1.325e-5
0.800, 2.099e-7, -1.324e-5
0.795, 2.128e-7, -1.323e-5
0.790, 2.183e-7, -1.322e-5
0.785, 2.208e-7, -1.321e-5
0.780, 2.280e-7, -1.320e-5
0.775, 2.350e-7, -1.319e-5
0.770, 2.425e-7, -1.318e-5
0.765, 2.542e-7, -1.316e-5
0.760, 2.620e-7, -1.315e-5
0.755, 2.720e-7, -1.314e-5
0.750, 2.806e-7, -1.312e-5
0.745, 2.915e-7, -1.311e-5
0.740, 2.992e-7, -1.309e-5
0.735, 3.059e-7, -1.308e-5
0.730, 3.126e-7, -1.306e-5
0.725, 3.176e-7, -1.305e-5
0.720, 3.300e-7, -1.303e-5
0.715, 3.432e-7, -1.301e-5
0.710, 3.569e-7, -1.300e-5
0.705, 3.619e-7, -1.298e-5
0.700, 3.732e-7, -1.296e-5
0.695, 3.886e-7, -1.294e-5
0.690, 4.048e-7, -1.292e-5
0.685, 4.116e-7, -1.290e-5
0.680, 4.265e-7, -1.288e-5
0.675, 4.445e-7, -1.285e-5
0.670, 4.594e-7, -1.283e-5
0.665, 4.691e-7, -1.281e-5
0.660, 4.924e-7, -1.278e-5
0.655, 5.051e-7, -1.276e-5
0.650, 5.213e-7, -1.273e-5
0.645, 5.440e-7, -1.271e-5
0.640, 5.614e-7, -1.268e-5
0.635, 5.842e-7, -1.265e-5
0.630, 6.054e-7, -1.262e-5
0.625, 6.237e-7, -1.259e-5
0.620, 6.512e-7, -1.255e-5
0.615, 6.832e-7, -1.252e-5
0.610, 7.037e-7, -1.248e-5
0.605, 7.330e-7, -1.245e-5
0.600, 7.609e-7, -1.241e-5
0.595, 7.940e-7, -1.237e-5
0.590, 8.316e-7, -1.233e-5
0.585, 8.611e-7, -1.229e-5
0.580, 8.989e-7, -1.224e-5
0.575, 9.379e-7, -1.219e-5
0.570, 9.823e-7, -1.214e-5
0.565, 1.019e-6, -1.209e-5
0.560, 1.072e-6, -1.204e-5
0.555, 1.118e-6, -1.198e-5
0.550, 1.172e-6, -1.193e-5
0.545, 1.225e-6, -1.186e-5
0.540, 1.284e-6, -1.180e-5
0.535, 1.343e-6, -1.173e-5
0.530, 1.423e-6, -1.166e-5
0.525, 1.496e-6, -1.159e-5
0.520, 1.569e-6, -1.151e-5
0.515, 1.646e-6, -1.143e-5
0.510, 1.726e-6, -1.134e-5
0.505, 1.804e-6, -1.125e-5
0.500, 1.891e-6, -1.115e-5
0.495, 1.976e-6, -1.106e-5
0.490, 2.069e-6, -1.095e-5
0.485, 2.157e-6, -1.084e-5
0.480, 2.253e-6, -1.073e-5
0.475, 2.342e-6, -1.062e-5
0.470, 2.438e-6, -1.049e-5
0.465, 2.524e-6, -1.037e-5
0.460, 2.609e-6, -1.024e-5
0.455, 2.687e-6, -1.010e-5
0.450, 2.763e-6, -9.964e-6
0.445, 2.827e-6, -9.823e-6
0.440, 2.880e-6, -9.679e-6
0.435, 2.921e-6, -9.533e-6
0.430, 2.951e-6, -9.385e-6
0.425, 2.959e-6, -9.237e-6
0.420, 2.960e-6, -9.089e-6
0.415, 2.945e-6, -8.942e-6
0.410, 2.905e-6, -8.797e-6
0.405, 2.856e-6, -8.654e-6
0.400, 2.800e-6, -8.514e-6
0.395, 2.724e-6, -8.378e-6
0.390, 2.645e-6, -8.245e-6
0.385, 2.555e-6, -8.118e-6
0.380, 2.456e-6, -7.995e-6
0.375, 2.358e-6, -7.877e-6
0.370, 2.254e-6, -7.764e-6
0.365, 2.146e-6, -7.657e-6
0.360, 2.050e-6, -7.554e-6
0.355, 1.941e-6, -7.457e-6
0.350, 1.851e-6, -7.365e-6
0.345, 1.748e-6, -7.277e-6
0.340, 1.664e-6, -7.194e-6
0.335, 1.576e-6, -7.115e-6
0.330, 1.496e-6, -7.041e-6
0.325, 1.408e-6, -6.970e-6
0.320, 1.325e-6, -6.904e-6
0.315, 1.256e-6, -6.841e-6
0.310, 1.197e-6, -6.781e-6
0.305, 1.135e-6, -6.724e-6
0.300, 1.082e-6, -6.670e-6
0.295, 1.025e-6, -6.619e-6
0.290, 9.742e-7, -6.570e-6
0.285, 9.255e-7, -6.524e-6
0.280, 8.870e-7, -6.480e-6
0.275, 8.470e-7, -6.437e-6
0.270, 8.095e-7, -6.397e-6
0.265, 7.696e-7, -6.358e-6
0.260, 7.384e-7, -6.322e-6
0.255, 7.051e-7, -6.286e-6
0.250, 6.792e-7, -6.252e-6
0.245, 6.462e-7, -6.220e-6
0.240, 6.215e-7, -6.189e-6
0.235, 5.984e-7, -6.159e-6
0.230, 5.759e-7, -6.130e-6
0.225, 5.552e-7, -6.102e-6
0.220, 5.333e-7, -6.076e-6
0.215, 5.158e-7, -6.050e-6
0.210, 5.004e-7, -6.025e-6
0.205, 4.815e-7, -6.001e-6
0.200, 4.695e-7, -5.977e-6
0.195, 4.534e-7, -5.955e-6
0.190, 4.408e-7, -5.933e-6
0.185, 4.258e-7, -5.911e-6
0.180, 4.170e-7, -5.891e-6
0.175, 4.029e-7, -5.870e-6
0.170, 3.937e-7, -5.851e-6
0.165, 3.831e-7, -5.832e-6
0.160, 3.769e-7, -5.813e-6
0.155, 3.678e-7, -5.794e-6
0.150, 3.622e-7, -5.776e-6
0.145, 3.525e-7, -5.759e-6
0.140, 3.472e-7, -5.741e-6
0.135, 3.402e-7, -5.724e-6
0.130, 3.365e-7, -5.707e-6
0.125, 3.305e-7, -5.691e-6
0.120, 3.277e-7, -5.675e-6
0.115, 3.222e-7, -5.658e-6
0.110, 3.210e-7, -5.642e-6
0.105, 3.161e-7, -5.627e-6
0.100, 3.160e-7, -5.611e-6
0.095, 3.112e-7, -5.595e-6
0.090, 3.106e-7, -5.580e-6
0.085, 3.088e-7, -5.564e-6
0.080, 3.091e-7, -5.549e-6
0.075, 3.081e-7, -5.533e-6
0.070, 3.107e-7, -5.518e-6
0.065, 3.098e-7, -5.502e-6
0.060, 3.141e-7, -5.487e-6
0.055, 3.148e-7, -5.471e-6
0.050, 3.199e-7, -5.455e-6
0.045, 3.224e-7, -5.439e-6
0.040, 3.288e-7, -5.422e-6
0.035, 3.339e-7, -5.406e-6
0.030, 3.448e-7, -5.388e-6
0.025, 3.526e-7, -5.371e-6
0.020, 3.644e-7, -5.353e-6
0.015, 3.738e-7, -5.334e-6
0.010, 3.942e-7, -5.314e-6
0.005, 4.096e-7, -5.294e-6
0.000, 4.286e-7, -5.272e-6
-0.005, 4.571e-7, -5.249e-6
-0.010, 4.833e-7, -5.225e-6
-0.015, 5.157e-7, -5.199e-6
-0.020, 5.577e-7, -5.172e-6
-0.025, 6.005e-7, -5.142e-6
-0.030, 6.485e-7, -5.109e-6
-0.035, 6.990e-7, -5.074e-6
-0.040, 7.574e-7, -5.036e-6
-0.045, 8.182e-7, -4.995e-6
-0.050, 8.770e-7, -4.952e-6
-0.055, 9.328e-7, -4.905e-6
-0.060, 9.947e-7, -4.855e-6
-0.065, 1.047e-6, -4.803e-6
-0.070, 1.100e-6, -4.748e-6
-0.075, 1.157e-6, -4.690e-6
-0.080, 1.207e-6, -4.630e-6
-0.085, 1.254e-6, -4.567e-6
-0.090, 1.294e-6, -4.502e-6
-0.095, 1.342e-6, -4.435e-6
-0.100, 1.378e-6, -4.366e-6
-0.105, 1.399e-6, -4.296e-6
-0.110, 1.422e-6, -4.225e-6
-0.115, 1.438e-6, -4.153e-6
-0.120, 1.452e-6, -4.081e-6
-0.125, 1.466e-6, -4.007e-6
-0.130, 1.480e-6, -3.933e-6
-0.135, 1.492e-6, -3.859e-6
-0.140, 1.513e-6, -3.783e-6
-0.145, 1.546e-6, -3.706e-6
-0.150, 1.591e-6, -3.626e-6
-0.155, 1.646e-6, -3.544e-6
-0.160, 1.708e-6, -3.459e-6
-0.165, 1.768e-6, -3.370e-6
-0.170, 1.846e-6, -3.278e-6
-0.175, 1.936e-6, -3.181e-6
-0.180, 2.044e-6, -3.079e-6
-0.185, 2.143e-6, -2.972e-6
-0.190, 2.235e-6, -2.860e-6
-0.195, 2.327e-6, -2.744e-6
-0.200, 2.412e-6, -2.623e-6
-0.205, 2.496e-6, -2.498e-6
-0.210, 2.585e-6, -2.369e-6
-0.215, 2.655e-6, -2.236e-6
-0.220, 2.718e-6, -2.100e-6
-0.225, 2.774e-6, -1.962e-6
-0.230, 2.827e-6, -1.820e-6
-0.235, 2.846e-6, -1.678e-6
-0.240, 2.862e-6, -1.535e-6
-0.245, 2.872e-6, -1.391e-6
-0.250, 2.873e-6, -1.248e-6
-0.255, 2.865e-6, -1.104e-6
-0.260, 2.871e-6, -9.609e-7
-0.265, 2.880e-6, -8.169e-7
-0.270, 2.903e-6, -6.718e-7
-0.275, 2.966e-6, -5.235e-7
-0.280, 1.063e-6, -4.703e-7

Segment 5:
-0.275, -4.176e-7, -4.912e-7
-0.270, -8.056e-7, -5.315e-7
-0.265, -1.035e-6, -5.832e-7
-0.260, -1.194e-6, -6.429e-7
-0.255, -1.317e-6, -7.088e-7
-0.250, -1.412e-6, -7.794e-7
-0.245, -1.497e-6, -8.542e-7
-0.240, -1.568e-6, -9.327e-7
-0.235, -1.629e-6, -1.014e-6
-0.230, -1.672e-6, -1.098e-6
-0.225, -1.705e-6, -1.183e-6
-0.220, -1.721e-6, -1.269e-6
-0.215, -1.734e-6, -1.356e-6
-0.210, -1.720e-6, -1.442e-6
-0.205, -1.729e-6, -1.528e-6
-0.200, -1.706e-6, -1.613e-6
-0.195, -1.684e-6, -1.698e-6
-0.190, -1.670e-6, -1.781e-6
-0.185, -1.652e-6, -1.864e-6
-0.180, -1.620e-6, -1.945e-6
-0.175, -1.566e-6, -2.023e-6
-0.170, -1.514e-6, -2.099e-6
-0.165, -1.471e-6, -2.172e-6
-0.160, -1.407e-6, -2.243e-6
-0.155, -1.358e-6, -2.311e-6
-0.150, -1.318e-6, -2.376e-6
-0.145, -1.289e-6, -2.441e-6
-0.140, -1.263e-6, -2.504e-6
-0.135, -1.251e-6, -2.567e-6
-0.130, -1.239e-6, -2.629e-6
-0.125, -1.237e-6, -2.690e-6
-0.120, -1.231e-6, -2.752e-6
-0.115, -1.234e-6, -2.814e-6
-0.110, -1.237e-6, -2.876e-6
-0.105, -1.248e-6, -2.938e-6
-0.100, -1.248e-6, -3.000e-6
-0.095, -1.255e-6, -3.063e-6
-0.090, -1.259e-6, -3.126e-6
-0.085, -1.276e-6, -3.190e-6
-0.080, -1.286e-6, -3.254e-6
-0.075, -1.309e-6, -3.320e-6
-0.070, -1.323e-6, -3.386e-6
-0.065, -1.346e-6, -3.453e-6
-0.060, -1.356e-6, -3.521e-6
-0.055, -1.356e-6, -3.589e-6
-0.050, -1.330e-6, -3.655e-6
-0.045, -1.296e-6, -3.720e-6
-0.040, -1.222e-6, -3.781e-6
-0.035, -1.133e-6, -3.838e-6
-0.030, -1.028e-6, -3.889e-6
-0.025, -9.300e-7, -3.936e-6
-0.020, -8.401e-7, -3.978e-6
-0.015, -7.500e-7, -4.015e-6
-0.010, -6.741e-7, -4.049e-6
-0.005, -6.116e-7, -4.079e-6
-0.000, -5.505e-7, -4.107e-6
0.005, -5.135e-7, -4.133e-6
0.010, -4.747e-7, -4.156e-6
0.015, -4.384e-7, -4.178e-6
0.020, -4.081e-7, -4.199e-6
0.025, -3.819e-7, -4.218e-6
0.030, -3.586e-7, -4.236e-6
0.035, -3.407e-7, -4.253e-6
0.040, -3.238e-7, -4.269e-6
0.045, -3.071e-7, -4.284e-6
0.050, -2.892e-7, -4.299e-6
0.055, -2.807e-7, -4.313e-6
0.060, -2.639e-7, -4.326e-6
0.065, -2.543e-7, -4.339e-6
0.070, -2.474e-7, -4.351e-6
0.075, -2.460e-7, -4.363e-6
0.080, -2.401e-7, -4.375e-6
0.085, -2.376e-7, -4.387e-6
0.090, -2.293e-7, -4.399e-6
0.095, -2.268e-7, -4.410e-6
0.100, -2.193e-7, -4.421e-6
0.105, -2.170e-7, -4.432e-6
0.110, -2.105e-7, -4.442e-6
0.115, -2.094e-7, -4.453e-6
0.120, -2.049e-7, -4.463e-6
0.125, -2.052e-7, -4.473e-6
0.130, -2.019e-7, -4.483e-6
0.135, -2.029e-7, -4.494e-6
0.140, -2.002e-7, -4.504e-6
0.145, -2.015e-7, -4.514e-6
0.150, -1.995e-7, -4.524e-6
0.155, -2.010e-7, -4.534e-6
0.160, -1.990e-7, -4.544e-6
0.165, -2.001e-7, -4.554e-6
0.170, -1.984e-7, -4.564e-6
0.175, -1.999e-7, -4.574e-6
0.180, -1.982e-7, -4.583e-6
0.185, -1.999e-7, -4.593e-6
0.190, -1.980e-7, -4.603e-6
0.195, -1.996e-7, -4.613e-6
0.200, -1.981e-7, -4.623e-6
0.205, -1.997e-7, -4.633e-6
0.210, -1.983e-7, -4.643e-6
0.215, -1.999e-7, -4.653e-6
0.220, -1.983e-7, -4.663e-6
0.225, -2.001e-7, -4.673e-6
0.230, -1.988e-7, -4.683e-6
0.235, -2.006e-7, -4.693e-6
0.240, -1.992e-7, -4.703e-6
0.245, -2.010e-7, -4.713e-6
0.250, -1.997e-7, -4.723e-6
0.255, -2.017e-7, -4.733e-6
0.260, -2.010e-7, -4.743e-6
0.265, -2.034e-7, -4.753e-6
0.270, -2.019e-7, -4.763e-6
0.275, -2.058e-7, -4.774e-6
0.280, -2.052e-7, -4.784e-6
0.285, -2.096e-7, -4.794e-6
0.290, -2.084e-7, -4.805e-6
0.295, -2.143e-7, -4.816e-6
0.300, -2.146e-7, -4.826e-6
0.305, -2.207e-7, -4.837e-6
0.310, -2.190e-7, -4.848e-6
0.315, -2.257e-7, -4.860e-6
0.320, -2.247e-7, -4.871e-6
0.325, -2.316e-7, -4.882e-6
0.330, -2.316e-7, -4.894e-6
0.335, -2.377e-7, -4.906e-6
0.340, -2.371e-7, -4.918e-6
0.345, -2.414e-7, -4.930e-6
0.350, -2.420e-7, -4.942e-6
0.355, -2.450e-7, -4.954e-6
0.360, -2.448e-7, -4.966e-6
0.365, -2.474e-7, -4.979e-6
0.370, -2.473e-7, -4.991e-6
0.375, -2.495e-7, -5.004e-6
0.380, -2.498e-7, -5.016e-6
0.385, -2.554e-7, -5.029e-6
0.390, -2.563e-7, -5.042e-6
0.395, -2.669e-7, -5.055e-6
0.400, -2.713e-7, -5.069e-6
0.405, -2.832e-7, -5.083e-6
0.410, -2.833e-7, -5.097e-6
0.415, -2.938e-7, -5.112e-6
0.420, -2.950e-7, -5.126e-6
0.425, -3.022e-7, -5.141e-6
0.430, -3.054e-7, -5.157e-6
0.435, -3.198e-7, -5.173e-6
0.440, -3.269e-7, -5.189e-6
0.445, -3.384e-7, -5.206e-6
0.450, -3.420e-7, -5.223e-6
0.455, -3.478e-7, -5.240e-6
0.460, -3.527e-7, -5.258e-6
0.465, -3.722e-7, -5.277e-6
0.470, -3.851e-7, -5.296e-6
0.475, -3.993e-7, -5.316e-6
0.480, -4.145e-7, -5.337e-6
0.485, -4.375e-7, -5.358e-6
0.490, -4.492e-7, -5.381e-6
0.495, -4.811e-7, -5.405e-6
0.500, -5.043e-7, -5.430e-6
0.505, -5.283e-7, -5.457e-6
0.510, -5.615e-7, -5.485e-6
0.515, -5.948e-7, -5.514e-6
0.520, -6.278e-7, -5.546e-6
0.525, -6.641e-7, -5.579e-6
0.530, -6.981e-7, -5.614e-6
0.535, -7.354e-7, -5.651e-6
0.540, -7.657e-7, -5.689e-6
0.545, -8.031e-7, -5.729e-6
0.550, -8.274e-7, -5.771e-6
0.555, -8.620e-7, -5.814e-6
0.560, -8.896e-7, -5.858e-6
0.565, -9.143e-7, -5.904e-6
0.570, -9.384e-7, -5.951e-6
0.575, -9.648e-7, -5.999e-6
0.580, -9.870e-7, -6.048e-6
0.585, -1.016e-6, -6.099e-6
0.590, -1.037e-6, -6.151e-6
0.595, -1.065e-6, -6.204e-6
0.600, -1.087e-6, -6.259e-6
0.605, -1.113e-6, -6.314e-6
0.610, -1.133e-6, -6.371e-6
0.615, -1.155e-6, -6.429e-6
0.620, -1.171e-6, -6.487e-6
0.625, -1.192e-6, -6.547e-6
0.630, -1.205e-6, -6.607e-6
0.635, -1.222e-6, -6.668e-6
0.640, -1.236e-6, -6.730e-6
0.645, -1.250e-6, -6.792e-6
0.650, -1.259e-6, -6.855e-6
0.655, -1.277e-6, -6.919e-6
0.660, -1.286e-6, -6.983e-6
0.665, -1.298e-6, -7.048e-6
0.670, -1.305e-6, -7.114e-6
0.675, -1.318e-6, -7.180e-6
0.680, -1.325e-6, -7.246e-6
0.685, -1.338e-6, -7.313e-6
0.690, -1.347e-6, -7.380e-6
0.695, -1.354e-6, -7.448e-6
0.700, -1.361e-6, -7.516e-6
0.705, -1.371e-6, -7.584e-6
0.710, -1.377e-6, -7.653e-6
0.715, -1.390e-6, -7.723e-6
0.720, -1.395e-6, -7.792e-6
0.725, -1.404e-6, -7.863e-6
0.730, -1.408e-6, -7.933e-6
0.735, -1.420e-6, -8.004e-6
0.740, -1.425e-6, -8.075e-6
0.745, -1.434e-6, -8.147e-6
0.750, -1.439e-6, -8.219e-6
0.755, -1.445e-6, -8.291e-6
0.760, -1.451e-6, -8.364e-6
0.765, -1.459e-6, -8.437e-6
0.770, -1.462e-6, -8.510e-6
0.775, -1.472e-6, -8.583e-6
0.780, -1.474e-6, -8.657e-6
0.785, -1.484e-6, -8.731e-6
0.790, -1.490e-6, -8.806e-6
0.795, -1.498e-6, -8.881e-6
0.800, -1.502e-6, -8.956e-6
0.805, -1.511e-6, -9.031e-6
0.810, -1.514e-6, -9.107e-6
0.815, -1.525e-6, -9.183e-6
0.820, -1.527e-6, -9.260e-6
0.825, -1.539e-6, -9.336e-6
0.830, -1.547e-6, -9.414e-6
0.835, -1.558e-6, -9.492e-6
0.840, -1.563e-6, -9.570e-6
0.845, -1.578e-6, -9.649e-6
0.850, -1.587e-6, -9.728e-6
0.855, -1.597e-6, -9.808e-6
0.860, -1.606e-6, -9.888e-6
0.865, -1.619e-6, -9.969e-6
0.870, -1.626e-6, -1.005e-5
0.875, -1.639e-6, -1.013e-5
0.880, -1.646e-6, -1.021e-5
0.885, -1.659e-6, -1.030e-5
0.890, -1.671e-6, -1.038e-5
0.895, -1.687e-6, -1.047e-5
0.900, -1.698e-6, -1.055e-5
0.905, -1.714e-6, -1.064e-5
0.910, -1.724e-6, -1.072e-5
0.915, -1.739e-6, -1.081e-5
0.920, -1.749e-6, -1.090e-5
0.925, -1.763e-6, -1.098e-5
0.930, -1.772e-6, -1.107e-5
0.935, -1.784e-6, -1.116e-5
0.940, -1.792e-6, -1.125e-5
0.945, -1.804e-6, -1.134e-5
0.950, -1.810e-6, -1.143e-5
0.955, -1.821e-6, -1.152e-5
0.960, -1.828e-6, -1.162e-5
0.965, -1.839e-6, -1.171e-5
0.970, -1.844e-6, -1.180e-5
0.975, -1.856e-6, -1.189e-5
0.980, -1.861e-6, -1.199e-5
0.985, -1.872e-6, -1.208e-5
0.990, -1.879e-6, -1.217e-5
0.995, -1.888e-6, -1.227e-5
1.000, -1.892e-6, -1.236e-5
1.005, -1.899e-6, -1.246e-5
1.010, -1.902e-6, -1.255e-5
1.015, -1.911e-6, -1.265e-5
1.020, -1.914e-6, -1.274e-5
1.025, -1.922e-6, -1.284e-5
1.030, -1.926e-6, -1.294e-5
1.035, -1.931e-6, -1.303e-5
1.040, -1.935e-6, -1.313e-5
1.045, -1.941e-6, -1.323e-5
1.050, -1.945e-6, -1.332e-5
1.055, -1.952e-6, -1.342e-5
1.060, -1.955e-6, -1.352e-5
1.065, -1.963e-6, -1.362e-5
1.070, -1.966e-6, -1.372e-5
1.075, -1.972e-6, -1.381e-5
1.080, -1.976e-6, -1.391e-5
1.085, -1.982e-6, -1.401e-5
1.090, -1.986e-6, -1.411e-5
1.095, -1.993e-6, -1.421e-5
1.100, -1.996e-6, -1.431e-5
1.105, -2.005e-6, -1.441e-5
1.110, -2.011e-6, -1.451e-5
1.115, -2.020e-6, -1.461e-5
1.120, -2.025e-6, -1.471e-5
1.125, -2.036e-6, -1.482e-5
1.130, -2.040e-6, -1.492e-5
1.135, -2.050e-6, -1.502e-5
1.140, -2.062e-6, -1.512e-5
1.145, -2.075e-6, -1.523e-5
1.150, -1.811e-6, -1.532e-5

Segment 6:
1.145, -1.433e-6, -1.539e-5
1.140, -1.182e-6, -1.545e-5
1.135, -9.983e-7, -1.550e-5
1.130, -8.511e-7, -1.554e-5
1.125, -7.332e-7, -1.558e-5
1.120, -6.302e-7, -1.561e-5
1.115, -5.520e-7, -1.564e-5
1.110, -4.796e-7, -1.566e-5
1.105, -4.234e-7, -1.568e-5
1.100, -3.694e-7, -1.570e-5
1.095, -3.311e-7, -1.572e-5
1.090, -2.934e-7, -1.573e-5
1.085, -2.615e-7, -1.574e-5
1.080, -2.278e-7, -1.576e-5
1.075, -2.069e-7, -1.577e-5
1.070, -1.754e-7, -1.577e-5
1.065, -1.635e-7, -1.578e-5
1.060, -1.455e-7, -1.579e-5
1.055, -1.251e-7, -1.580e-5
1.050, -1.055e-7, -1.580e-5
1.045, -8.943e-8, -1.581e-5
1.040, -7.737e-8, -1.581e-5
1.035, -6.832e-8, -1.581e-5
1.030, -5.088e-8, -1.582e-5
1.025, -3.950e-8, -1.582e-5
1.020, -2.654e-8, -1.582e-5
1.015, -2.201e-8, -1.582e-5
1.010, -1.105e-8, -1.582e-5
1.005, -3.571e-9, -1.582e-5
1.000, 7.993e-9, -1.582e-5
0.995, 1.255e-8, -1.582e-5
0.990, 2.097e-8, -1.582e-5
0.985, 2.272e-8, -1.582e-5
0.980, 3.113e-8, -1.582e-5
0.975, 3.401e-8, -1.581e-5
0.970, 4.344e-8, -1.581e-5
0.965, 4.925e-8, -1.581e-5
0.960, 5.717e-8, -1.581e-5
0.955, 6.126e-8, -1.580e-5
0.950, 6.825e-8, -1.580e-5
0.945, 6.858e-8, -1.580e-5
0.940, 7.465e-8, -1.579e-5
0.935, 7.576e-8, -1.579e-5
0.930, 8.307e-8, -1.579e-5
0.925, 8.604e-8, -1.578e-5
0.920, 9.577e-8, -1.578e-5
0.915, 9.862e-8, -1.577e-5
0.910, 1.066e-7, -1.577e-5
0.905, 1.104e-7, -1.576e-5
0.900, 1.154e-7, -1.575e-5
0.895, 1.167e-7, -1.575e-5
0.890, 1.228e-7, -1.574e-5
0.885, 1.231e-7, -1.574e-5
0.880, 1.299e-7, -1.573e-5
0.875, 1.332e-7, -1.572e-5
0.870, 1.403e-7, -1.572e-5
0.865, 1.451e-7, -1.571e-5
0.860, 1.532e-7, -1.570e-5
0.855, 1.568e-7, -1.569e-5
0.850, 1.629e-7, -1.569e-5
0.845, 1.651e-7, -1.568e-5
0.840, 1.701e-7, -1.567e-5
0.835, 1.716e-7, -1.566e-5
0.830, 1.784e-7, -1.565e-5
0.825, 1.831e-7, -1.564e-5
0.820, 1.894e-7, -1.563e-5
0.815, 1.986e-7, -1.562e-5
0.810, 2.071e-7, -1.561e-5
0.805, 2.104e-7, -1.560e-5
0.800, 2.165e-7, -1.559e-5
0.795, 2.177e-7, -1.558e-5
0.790, 2.242e-7, -1.557e-5
0.785, 2.280e-7, -1.556e-5
0.780, 2.363e-7, -1.555e-5
0.775, 2.464e-7, -1.553e-5
0.770, 2.534e-7, -1.552e-5
0.765, 2.643e-7, -1.551e-5
0.760, 2.724e-7, -1.549e-5
0.755, 2.813e-7, -1.548e-5
0.750, 2.910e-7, -1.547e-5
0.745, 2.997e-7, -1.545e-5
0.740, 3.075e-7, -1.544e-5
0.735, 3.113e-7, -1.542e-5
0.730, 3.187e-7, -1.540e-5
0.725, 3.260e-7, -1.539e-5
0.720, 3.420e-7, -1.537e-5
0.715, 3.536e-7, -1.535e-5
0.710, 3.633e-7, -1.533e-5
0.705, 3.698e-7, -1.532e-5
0.700, 3.856e-7, -1.530e-5
0.695, 4.002e-7, -1.528e-5
0.690, 4.119e-7, -1.526e-5
0.685, 4.206e-7, -1.523e-5
0.680, 4.412e-7, -1.521e-5
0.675, 4.545e-7, -1.519e-5
0.670, 4.667e-7, -1.517e-5
0.665, 4.824e-7, -1.514e-5
0.660, 5.036e-7, -1.512e-5
0.655, 5.134e-7, -1.509e-5
0.650, 5.371e-7, -1.507e-5
0.645, 5.548e-7, -1.504e-5
0.640, 5.751e-7, -1.501e-5
0.635, 5.988e-7, -1.498e-5
0.630, 6.148e-7, -1.495e-5
0.625, 6.406e-7, -1.492e-5
0.620, 6.698e-7, -1.488e-5
0.615, 6.963e-7, -1.485e-5
0.610, 7.199e-7, -1.481e-5
0.605, 7.493e-7, -1.477e-5
0.600, 7.838e-7, -1.473e-5
0.595, 8.125e-7, -1.469e-5
0.590, 8.501e-7, -1.465e-5
0.585, 8.861e-7, -1.461e-5
0.580, 9.224e-7, -1.456e-5
0.575, 9.616e-7, -1.451e-5
0.570, 1.003e-6, -1.446e-5
0.565, 1.056e-6, -1.441e-5
0.560, 1.098e-6, -1.436e-5
0.555, 1.152e-6, -1.430e-5
0.550, 1.207e-6, -1.424e-5
0.545, 1.263e-6, -1.417e-5
0.540, 1.326e-6, -1.411e-5
0.535, 1.398e-6, -1.404e-5
0.530, 1.481e-6, -1.396e-5
0.525, 1.551e-6, -1.389e-5
0.520, 1.631e-6, -1.380e-5
0.515, 1.707e-6, -1.372e-5
0.510, 1.794e-6, -1.363e-5
0.505, 1.882e-6, -1.354e-5
0.500, 1.973e-6, -1.344e-5
0.495, 2.067e-6, -1.333e-5
0.490, 2.163e-6, -1.323e-5
0.485, 2.264e-6, -1.311e-5
0.480, 2.367e-6, -1.299e-5
0.475, 2.464e-6, -1.287e-5
0.470, 2.560e-6, -1.274e-5
0.465, 2.659e-6, -1.261e-5
0.460, 2.750e-6, -1.247e-5
0.455, 2.834e-6, -1.233e-5
0.450, 2.915e-6, -1.218e-5
0.445, 2.983e-6, -1.204e-5
0.440, 3.041e-6, -1.188e-5
0.435, 3.084e-6, -1.173e-5
0.430, 3.111e-6, -1.157e-5
0.425, 3.120e-6, -1.142e-5
0.420, 3.113e-6, -1.126e-5
0.415, 3.092e-6, -1.111e-5
0.410, 3.047e-6, -1.096e-5
0.405, 2.986e-6, -1.081e-5
0.400, 2.918e-6, -1.066e-5
0.395, 2.835e-6, -1.052e-5
0.390, 2.744e-6, -1.038e-5
0.385, 2.649e-6, -1.025e-5
0.380, 2.542e-6, -1.012e-5
0.375, 2.427e-6, -1.000e-5
0.370, 2.315e-6, -9.885e-6
0.365, 2.203e-6, -9.774e-6
0.360, 2.096e-6, -9.670e-6
0.355, 1.980e-6, -9.571e-6
0.350, 1.875e-6, -9.477e-6
0.345, 1.774e-6, -9.388e-6
0.340, 1.677e-6, -9.304e-6
0.335, 1.585e-6, -9.225e-6
0.330, 1.502e-6, -9.150e-6
0.325, 1.410e-6, -9.080e-6
0.320, 1.323e-6, -9.013e-6
0.315, 1.253e-6, -8.951e-6
0.310, 1.192e-6, -8.891e-6
0.305, 1.126e-6, -8.835e-6
0.300, 1.074e-6, -8.781e-6
0.295, 1.017e-6, -8.730e-6
0.290, 9.657e-7, -8.682e-6
0.285, 9.179e-7, -8.636e-6
0.280, 8.780e-7, -8.592e-6
0.275, 8.397e-7, -8.550e-6
0.270, 8.041e-7, -8.510e-6
0.265, 7.649e-7, -8.472e-6
0.260, 7.316e-7, -8.435e-6
0.255, 7.015e-7, -8.400e-6
0.250, 6.758e-7, -8.366e-6
0.245, 6.430e-7, -8.334e-6
0.240, 6.200e-7, -8.303e-6
0.235, 5.957e-7, -8.273e-6
0.230, 5.730e-7, -8.245e-6
0.225, 5.516e-7, -8.217e-6
0.220, 5.301e-7, -8.191e-6
0.215, 5.118e-7, -8.165e-6
0.210, 4.941e-7, -8.140e-6
0.205, 4.765e-7, -8.117e-6
0.200, 4.644e-7, -8.093e-6
0.195, 4.451e-7, -8.071e-6
0.190, 4.316e-7, -8.050e-6
0.185, 4.177e-7, -8.029e-6
0.180, 4.087e-7, -8.008e-6
0.175, 3.937e-7, -7.989e-6
0.170, 3.844e-7, -7.969e-6
0.165, 3.749e-7, -7.951e-6
0.160, 3.669e-7, -7.932e-6
0.155, 3.559e-7, -7.914e-6
0.150, 3.491e-7, -7.897e-6
0.145, 3.397e-7, -7.880e-6
0.140, 3.351e-7, -7.863e-6
0.135, 3.285e-7, -7.847e-6
0.130, 3.261e-7, -7.831e-6
0.125, 3.186e-7, -7.815e-6
0.120, 3.153e-7, -7.799e-6
0.115, 3.088e-7, -7.783e-6
0.110, 3.078e-7, -7.768e-6
0.105, 3.023e-7, -7.753e-6
0.100, 3.011e-7, -7.738e-6
0.095, 2.968e-7, -7.723e-6
0.090, 2.973e-7, -7.708e-6
0.085, 2.945e-7, -7.693e-6
0.080, 2.954e-7, -7.679e-6
0.075, 2.942e-7, -7.664e-6
0.070, 2.965e-7, -7.649e-6
0.065, 2.960e-7, -7.634e-6
0.060, 2.991e-7, -7.619e-6
0.055, 3.005e-7, -7.604e-6
0.050, 3.052e-7, -7.589e-6
0.045, 3.083e-7, -7.574e-6
0.040, 3.156e-7, -7.558e-6
0.035, 3.222e-7, -7.542e-6
0.030, 3.328e-7, -7.525e-6
0.025, 3.418e-7, -7.508e-6
0.020, 3.552e-7, -7.490e-6
0.015, 3.663e-7, -7.472e-6
0.010, 3.848e-7, -7.453e-6
0.005, 4.030e-7, -7.433e-6
0.000, 4.221e-7, -7.411e-6
-0.005, 4.547e-7, -7.389e-6
-0.010, 4.808e-7, -7.365e-6
-0.015, 5.153e-7, -7.339e-6
-0.020, 5.598e-7, -7.311e-6
-0.025, 6.065e-7, -7.281e-6
-0.030, 6.583e-7, -7.248e-6
-0.035, 7.109e-7, -7.212e-6
-0.040, 7.759e-7, -7.173e-6
-0.045, 8.373e-7, -7.131e-6
-0.050, 9.072e-7, -7.086e-6
-0.055, 9.657e-7, -7.038e-6
-0.060, 1.026e-6, -6.987e-6
-0.065, 1.077e-6, -6.933e-6
-0.070, 1.133e-6, -6.876e-6
-0.075, 1.188e-6, -6.817e-6
-0.080, 1.239e-6, -6.755e-6
-0.085, 1.277e-6, -6.691e-6
-0.090, 1.317e-6, -6.625e-6
-0.095, 1.360e-6, -6.557e-6
-0.100, 1.393e-6, -6.487e-6
-0.105, 1.409e-6, -6.417e-6
-0.110, 1.426e-6, -6.346e-6
-0.115, 1.432e-6, -6.274e-6
-0.120, 1.448e-6, -6.202e-6
-0.125, 1.459e-6, -6.129e-6
-0.130, 1.472e-6, -6.055e-6
-0.135, 1.487e-6, -5.981e-6
-0.140, 1.519e-6, -5.905e-6
-0.145, 1.552e-6, -5.827e-6
-0.150, 1.598e-6, -5.747e-6
-0.155, 1.646e-6, -5.665e-6
-0.160, 1.707e-6, -5.580e-6
-0.165, 1.778e-6, -5.491e-6
-0.170, 1.863e-6, -5.398e-6
-0.175, 1.948e-6, -5.300e-6
-0.180, 2.060e-6, -5.197e-6
-0.185, 2.158e-6, -5.089e-6
-0.190, 2.259e-6, -4.976e-6
-0.195, 2.356e-6, -4.859e-6
-0.200, 2.457e-6, -4.736e-6
-0.205, 2.540e-6, -4.609e-6
-0.210, 2.631e-6, -4.477e-6
-0.215, 2.696e-6, -4.342e-6
-0.220, 2.770e-6, -4.204e-6
-0.225, 2.816e-6, -4.063e-6
-0.230, 2.878e-6, -3.919e-6
-0.235, 2.888e-6, -3.775e-6
-0.240, 2.895e-6, -3.630e-6
-0.245, 2.888e-6, -3.486e-6
-0.250, 2.887e-6, -3.341e-6
-0.255, 2.851e-6, -3.199e-6
-0.260, 2.853e-6, -3.056e-6
-0.265, 2.850e-6, -2.914e-6
-0.270, 2.866e-6, -2.770e-6
-0.275, 2.917e-6, -2.624e-6
-0.280, 9.569e-7, -2.577e-6

Segment 7:
-0.275, -5.159e-7, -2.602e-6
-0.270, -8.952e-7, -2.647e-6
-0.265, -1.132e-6, -2.704e-6
-0.260, -1.284e-6, -2.768e-6
-0.255, -1.405e-6, -2.838e-6
-0.250, -1.503e-6, -2.913e-6
-0.245, -1.591e-6, -2.993e-6
-0.240, -1.659e-6, -3.076e-6
-0.235, -1.725e-6, -3.162e-6
-0.230, -1.771e-6, -3.251e-6
-0.225, -1.812e-6, -3.341e-6
-0.220, -1.825e-6, -3.433e-6
-0.215, -1.839e-6, -3.524e-6
-0.210, -1.830e-6, -3.616e-6
-0.205, -1.824e-6, -3.707e-6
-0.200, -1.800e-6, -3.797e-6
-0.195, -1.781e-6, -3.886e-6
-0.190, -1.756e-6, -3.974e-6
-0.185, -1.727e-6, -4.060e-6
-0.180, -1.692e-6, -4.145e-6
-0.175, -1.642e-6, -4.227e-6
-0.170, -1.566e-6, -4.305e-6
-0.165, -1.507e-6, -4.381e-6
-0.160, -1.440e-6, -4.453e-6
-0.155, -1.381e-6, -4.522e-6
-0.150, -1.343e-6, -4.589e-6
-0.145, -1.317e-6, -4.655e-6
-0.140, -1.282e-6, -4.719e-6
-0.135, -1.280e-6, -4.783e-6
-0.130, -1.270e-6, -4.846e-6
-0.125, -1.268e-6, -4.910e-6
-0.120, -1.266e-6, -4.973e-6
-0.115, -1.268e-6, -5.036e-6
-0.110, -1.279e-6, -5.100e-6
-0.105, -1.294e-6, -5.165e-6
-0.100, -1.294e-6, -5.230e-6
-0.095, -1.303e-6, -5.295e-6
-0.090, -1.309e-6, -5.360e-6
-0.085, -1.329e-6, -5.427e-6
-0.080, -1.341e-6, -5.494e-6
-0.075, -1.365e-6, -5.562e-6
-0.070, -1.380e-6, -5.631e-6
-0.065, -1.400e-6, -5.701e-6
-0.060, -1.406e-6, -5.772e-6
-0.055, -1.399e-6, -5.841e-6
-0.050, -1.365e-6, -5.910e-6
-0.045, -1.318e-6, -5.976e-6
-0.040, -1.233e-6, -6.037e-6
-0.035, -1.140e-6, -6.094e-6
-0.030, -1.030e-6, -6.146e-6
-0.025, -9.277e-7, -6.192e-6
-0.020, -8.272e-7, -6.233e-6
-0.015, -7.408e-7, -6.270e-6
-0.010, -6.659e-7, -6.304e-6
-0.005, -6.049e-7, -6.334e-6
-0.000, -5.433e-7, -6.361e-6
0.005, -5.099e-7, -6.387e-6
0.010, -4.680e-7, -6.410e-6
0.015, -4.338e-7, -6.432e-6
0.020, -4.040e-7, -6.452e-6
0.025, -3.780e-7, -6.471e-6
0.030, -3.532e-7, -6.489e-6
0.035, -3.383e-7, -6.505e-6
0.040, -3.187e-7, -6.521e-6
0.045, -3.022e-7, -6.537e-6
0.050, -2.858e-7, -6.551e-6
0.055, -2.780e-7, -6.565e-6
0.060, -2.619e-7, -6.578e-6
0.065, -2.539e-7, -6.590e-6
0.070, -2.476e-7, -6.603e-6
0.075, -2.467e-7, -6.615e-6
0.080, -2.406e-7, -6.627e-6
0.085, -2.391e-7, -6.639e-6
0.090, -2.291e-7, -6.651e-6
0.095, -2.280e-7, -6.662e-6
0.100, -2.206e-7, -6.673e-6
0.105, -2.192e-7, -6.684e-6
0.110, -2.126e-7, -6.695e-6
0.115, -2.127e-7, -6.705e-6
0.120, -2.086e-7, -6.716e-6
0.125, -2.099e-7, -6.726e-6
0.130, -2.065e-7, -6.737e-6
0.135, -2.080e-7, -6.747e-6
0.140, -2.062e-7, -6.757e-6
0.145, -2.091e-7, -6.768e-6
0.150, -2.056e-7, -6.778e-6
0.155, -2.074e-7, -6.788e-6
0.160, -2.051e-7, -6.799e-6
0.165, -2.067e-7, -6.809e-6
0.170, -2.030e-7, -6.819e-6
0.175, -2.037e-7, -6.829e-6
0.180, -2.009e-7, -6.839e-6
0.185, -2.025e-7, -6.849e-6
0.190, -2.001e-7, -6.859e-6
0.195, -2.015e-7, -6.870e-6
0.200, -1.997e-7, -6.880e-6
0.205, -2.012e-7, -6.890e-6
0.210, -1.996e-7, -6.900e-6
0.215, -2.012e-7, -6.910e-6
0.220, -2.002e-7, -6.920e-6
0.225, -2.018e-7, -6.930e-6
0.230, -2.002e-7, -6.940e-6
0.235, -2.015e-7, -6.950e-6
0.240, -2.004e-7, -6.960e-6
0.245, -2.018e-7, -6.970e-6
0.250, -2.001e-7, -6.980e-6
0.255, -2.022e-7, -6.990e-6
0.260, -2.004e-7, -7.000e-6
0.265, -2.021e-7, -7.010e-6
0.270, -2.006e-7, -7.020e-6
0.275, -2.026e-7, -7.030e-6
0.280, -2.019e-7, -7.040e-6
0.285, -2.039e-7, -7.051e-6
0.290, -2.030e-7, -7.061e-6
0.295, -2.051e-7, -7.071e-6
0.300, -2.041e-7, -7.081e-6
0.305, -2.080e-7, -7.092e-6
0.310, -2.056e-7, -7.102e-6
0.315, -2.105e-7, -7.112e-6
0.320, -2.086e-7, -7.123e-6
0.325, -2.151e-7, -7.134e-6
0.330, -2.139e-7, -7.144e-6
0.335, -2.231e-7, -7.155e-6
0.340, -2.273e-7, -7.167e-6
0.345, -2.339e-7, -7.179e-6
0.350, -2.332e-7, -7.190e-6
0.355, -2.401e-7, -7.202e-6
0.360, -2.400e-7, -7.214e-6
0.365, -2.435e-7, -7.226e-6
0.370, -2.429e-7, -7.238e-6
0.375, -2.460e-7, -7.251e-6
0.380, -2.457e-7, -7.263e-6
0.385, -2.479e-7, -7.275e-6
0.390, -2.480e-7, -7.288e-6
0.395, -2.507e-7, -7.300e-6
0.400, -2.516e-7, -7.313e-6
0.405, -2.588e-7, -7.326e-6
0.410, -2.583e-7, -7.339e-6
0.415, -2.728e-7, -7.352e-6
0.420, -2.765e-7, -7.366e-6
0.425, -2.867e-7, -7.381e-6
0.430, -2.910e-7, -7.395e-6
0.435, -2.975e-7, -7.410e-6
0.440, -2.994e-7, -7.425e-6
0.445, -3.107e-7, -7.441e-6
0.450, -3.202e-7, -7.457e-6
0.455, -3.358e-7, -7.473e-6
0.460, -3.409e-7, -7.490e-6
0.465, -3.477e-7, -7.508e-6
0.470, -3.557e-7, -7.526e-6
0.475, -3.783e-7, -7.545e-6
0.480, -3.903e-7, -7.564e-6
0.485, -4.116e-7, -7.585e-6
0.490, -4.331e-7, -7.606e-6
0.495, -4.528e-7, -7.629e-6
0.500, -4.804e-7, -7.653e-6
0.505, -5.094e-7, -7.678e-6
0.510, -5.343e-7, -7.705e-6
0.515, -5.707e-7, -7.734e-6
0.520, -6.004e-7, -7.764e-6
0.525, -6.368e-7, -7.795e-6
0.530, -6.706e-7, -7.829e-6
0.535, -7.122e-7, -7.865e-6
0.540, -7.375e-7, -7.902e-6
0.545, -7.738e-7, -7.940e-6
0.550, -8.045e-7, -7.980e-6
0.555, -8.349e-7, -8.022e-6
0.560, -8.597e-7, -8.065e-6
0.565, -8.919e-7, -8.110e-6
0.570, -9.112e-7, -8.155e-6
0.575, -9.373e-7, -8.202e-6
0.580, -9.640e-7, -8.250e-6
0.585, -9.930e-7, -8.300e-6
0.590, -1.015e-6, -8.351e-6
0.595, -1.042e-6, -8.403e-6
0.600, -1.060e-6, -8.456e-6
0.605, -1.092e-6, -8.510e-6
0.610, -1.110e-6, -8.566e-6
0.615, -1.134e-6, -8.623e-6
0.620, -1.150e-6, -8.680e-6
0.625, -1.168e-6, -8.739e-6
0.630, -1.186e-6, -8.798e-6
0.635, -1.202e-6, -8.858e-6
0.640, -1.214e-6, -8.919e-6
0.645, -1.229e-6, -8.980e-6
0.650, -1.236e-6, -9.042e-6
0.655, -1.251e-6, -9.105e-6
0.660, -1.259e-6, -9.167e-6
0.665, -1.271e-6, -9.231e-6
0.670, -1.281e-6, -9.295e-6
0.675, -1.292e-6, -9.360e-6
0.680, -1.296e-6, -9.424e-6
0.685, -1.305e-6, -9.490e-6
0.690, -1.312e-6, -9.555e-6
0.695, -1.323e-6, -9.621e-6
0.700, -1.328e-6, -9.688e-6
0.705, -1.339e-6, -9.755e-6
0.710, -1.345e-6, -9.822e-6
0.715, -1.355e-6, -9.890e-6
0.720, -1.359e-6, -9.958e-6
0.725, -1.368e-6, -1.003e-5
0.730, -1.374e-6, -1.009e-5
0.735, -1.386e-6, -1.016e-5
0.740, -1.391e-6, -1.023e-5
0.745, -1.401e-6, -1.030e-5
0.750, -1.405e-6, -1.037e-5
0.755, -1.413e-6, -1.044e-5
0.760, -1.417e-6, -1.052e-5
0.765, -1.425e-6, -1.059e-5
0.770, -1.428e-6, -1.066e-5
0.775, -1.438e-6, -1.073e-5
0.780, -1.441e-6, -1.080e-5
0.785, -1.451e-6, -1.087e-5
0.790, -1.456e-6, -1.095e-5
0.795, -1.467e-6, -1.102e-5
0.800, -1.470e-6, -1.109e-5
0.805, -1.482e-6, -1.117e-5
0.810, -1.488e-6, -1.124e-5
0.815, -1.500e-6, -1.132e-5
0.820, -1.502e-6, -1.139e-5
0.825, -1.513e-6, -1.147e-5
0.830, -1.517e-6, -1.154e-5
0.835, -1.529e-6, -1.162e-5
0.840, -1.537e-6, -1.170e-5
0.845, -1.552e-6, -1.178e-5
0.850, -1.558e-6, -1.185e-5
0.855, -1.571e-6, -1.193e-5
0.860, -1.578e-6, -1.201e-5
0.865, -1.594e-6, -1.209e-5
0.870, -1.602e-6, -1.217e-5
0.875, -1.614e-6, -1.225e-5
0.880, -1.619e-6, -1.233e-5
0.885, -1.635e-6, -1.241e-5
0.890, -1.645e-6, -1.250e-5
0.895, -1.659e-6, -1.258e-5
0.900, -1.667e-6, -1.266e-5
0.905, -1.683e-6, -1.275e-5
0.910, -1.691e-6, -1.283e-5
0.915, -1.705e-6, -1.292e-5
0.920, -1.717e-6, -1.300e-5
0.925, -1.732e-6, -1.309e-5
0.930, -1.740e-6, -1.318e-5
0.935, -1.752e-6, -1.326e-5
0.940, -1.758e-6, -1.335e-5
0.945, -1.768e-6, -1.344e-5
0.950, -1.774e-6, -1.353e-5
0.955, -1.786e-6, -1.362e-5
0.960, -1.791e-6, -1.371e-5
0.965, -1.802e-6, -1.380e-5
0.970, -1.805e-6, -1.389e-5
0.975, -1.811e-6, -1.398e-5
0.980, -1.813e-6, -1.407e-5
0.985, -1.820e-6, -1.416e-5
0.990, -1.824e-6, -1.425e-5
0.995, -1.835e-6, -1.434e-5
1.000, -1.839e-6, -1.443e-5
1.005, -1.848e-6, -1.453e-5
1.010, -1.849e-6, -1.462e-5
1.015, -1.856e-6, -1.471e-5
1.020, -1.858e-6, -1.481e-5
1.025, -1.865e-6, -1.490e-5
1.030, -1.866e-6, -1.499e-5
1.035, -1.873e-6, -1.509e-5
1.040, -1.875e-6, -1.518e-5
1.045, -1.882e-6, -1.527e-5
1.050, -1.886e-6, -1.537e-5
1.055, -1.893e-6, -1.546e-5
1.060, -1.895e-6, -1.556e-5
1.065, -1.900e-6, -1.565e-5
1.070, -1.901e-6, -1.575e-5
1.075, -1.906e-6, -1.584e-5
1.080, -1.907e-6, -1.594e-5
1.085, -1.911e-6, -1.603e-5
1.090, -1.911e-6, -1.613e-5
1.095, -1.918e-6, -1.622e-5
1.100, -1.923e-6, -1.632e-5
1.105, -1.934e-6, -1.642e-5
1.110, -1.938e-6, -1.651e-5
1.115, -1.948e-6, -1.661e-5
1.120, -1.952e-6, -1.671e-5
1.125, -1.962e-6, -1.681e-5
1.130, -1.968e-6, -1.691e-5
1.135, -1.984e-6, -1.701e-5
1.140, -1.994e-6, -1.710e-5
1.145, -2.005e-6, -1.721e-5
1.150, -1.739e-6, -1.729e-5

Segment 8:
1.145, -1.374e-6, -1.736e-5
1.140, -1.134e-6, -1.742e-5
1.135, -9.568e-7, -1.747e-5
1.130, -8.066e-7, -1.751e-5
1.125, -6.977e-7, -1.754e-5
1.120, -6.029e-7, -1.757e-5
1.115, -5.267e-7, -1.760e-5
1.110, -4.557e-7, -1.762e-5
1.105, -4.033e-7, -1.764e-5
1.100, -3.511e-7, -1.766e-5
1.095, -3.141e-7, -1.767e-5
1.090, -2.730e-7, -1.769e-5
1.085, -2.482e-7, -1.770e-5
1.080, -2.125e-7, -1.771e-5
1.075, -1.955e-7, -1.772e-5
1.070, -1.622e-7, -1.773e-5
1.065, -1.488e-7, -1.774e-5
1.060, -1.335e-7, -1.774e-5
1.055, -1.188e-7, -1.775e-5
1.050, -1.045e-7, -1.775e-5
1.045, -8.863e-8, -1.776e-5
1.040, -6.950e-8, -1.776e-5
1.035, -5.868e-8, -1.776e-5
1.030, -4.402e-8, -1.777e-5
1.025, -3.374e-8, -1.777e-5
1.020, -1.853e-8, -1.777e-5
1.015, -1.237e-8, -1.777e-5
1.010, -4.051e-9, -1.777e-5
1.005, -1.675e-9, -1.777e-5
1.000, 8.183e-9, -1.777e-5
0.995, 1.220e-8, -1.777e-5
0.990, 2.394e-8, -1.777e-5
0.985, 2.900e-8, -1.777e-5
0.980, 3.833e-8, -1.776e-5
0.975, 3.971e-8, -1.776e-5
0.970, 4.659e-8, -1.776e-5
0.965, 4.825e-8, -1.776e-5
0.960, 5.541e-8, -1.775e-5
0.955, 5.889e-8, -1.775e-5
0.950, 6.825e-8, -1.775e-5
0.945, 7.226e-8, -1.774e-5
0.940, 8.059e-8, -1.774e-5
0.935, 8.310e-8, -1.774e-5
0.930, 9.009e-8, -1.773e-5
0.925, 9.099e-8, -1.773e-5
0.920, 9.748e-8, -1.772e-5
0.915, 9.859e-8, -1.772e-5
0.910, 1.058e-7, -1.771e-5
0.905, 1.090e-7, -1.771e-5
0.900, 1.178e-7, -1.770e-5
0.895, 1.208e-7, -1.769e-5
0.890, 1.292e-7, -1.769e-5
0.885, 1.304e-7, -1.768e-5
0.880, 1.374e-7, -1.767e-5
0.875, 1.382e-7, -1.767e-5
0.870, 1.440e-7, -1.766e-5
0.865, 1.461e-7, -1.765e-5
0.860, 1.524e-7, -1.765e-5
0.855, 1.552e-7, -1.764e-5
0.850, 1.633e-7, -1.763e-5
0.845, 1.677e-7, -1.762e-5
0.840, 1.763e-7, -1.761e-5
0.835, 1.790e-7, -1.760e-5
0.830, 1.869e-7, -1.759e-5
0.825, 1.885e-7, -1.759e-5
0.820, 1.936e-7, -1.758e-5
0.815, 1.971e-7, -1.757e-5
0.810, 2.059e-7, -1.756e-5
0.805, 2.106e-7, -1.754e-5
0.800, 2.199e-7, -1.753e-5
0.795, 2.261e-7, -1.752e-5
0.790, 2.345e-7, -1.751e-5
0.785, 2.385e-7, -1.750e-5
0.780, 2.464e-7, -1.749e-5
0.775, 2.530e-7, -1.747e-5
0.770, 2.603e-7, -1.746e-5
0.765, 2.677e-7, -1.745e-5
0.760, 2.745e-7, -1.743e-5
0.755, 2.816e-7, -1.742e-5
0.750, 2.907e-7, -1.741e-5
0.745, 2.970e-7, -1.739e-5
0.740, 3.080e-7, -1.737e-5
0.735, 3.152e-7, -1.736e-5
0.730, 3.276e-7, -1.734e-5
0.725, 3.340e-7, -1.733e-5
0.720, 3.456e-7, -1.731e-5
0.715, 3.555e-7, -1.729e-5
0.710, 3.699e-7, -1.727e-5
0.705, 3.780e-7, -1.725e-5
0.700, 3.914e-7, -1.723e-5
0.695, 4.019e-7, -1.721e-5
0.690, 4.196e-7, -1.719e-5
0.685, 4.287e-7, -1.717e-5
0.680, 4.451e-7, -1.715e-5
0.675, 4.602e-7, -1.713e-5
0.670, 4.781e-7, -1.710e-5
0.665, 4.873e-7, -1.708e-5
0.660, 5.088e-7, -1.705e-5
0.655, 5.228e-7, -1.703e-5
0.650, 5.429e-7, -1.700e-5
0.645, 5.629e-7, -1.697e-5
0.640, 5.854e-7, -1.694e-5
0.635, 6.059e-7, -1.691e-5
0.630, 6.298e-7, -1.688e-5
0.625, 6.519e-7, -1.685e-5
0.620, 6.771e-7, -1.681e-5
0.615, 7.047e-7, -1.678e-5
0.610, 7.320e-7, -1.674e-5
0.605, 7.606e-7, -1.670e-5
0.600, 7.944e-7, -1.666e-5
0.595, 8.251e-7, -1.662e-5
0.590, 8.666e-7, -1.658e-5
0.585, 8.981e-7, -1.653e-5
0.580, 9.381e-7, -1.649e-5
0.575, 9.777e-7, -1.644e-5
0.570, 1.025e-6, -1.639e-5
0.565, 1.068e-6, -1.633e-5
0.560, 1.118e-6, -1.628e-5
0.555, 1.170e-6, -1.622e-5
0.550, 1.228e-6, -1.616e-5
0.545, 1.284e-6, -1.609e-5
0.540, 1.350e-6, -1.603e-5
0.535, 1.429e-6, -1.596e-5
0.530, 1.506e-6, -1.588e-5
0.525, 1.576e-6, -1.580e-5
0.520, 1.659e-6, -1.572e-5
0.515, 1.737e-6, -1.563e-5
0.510, 1.827e-6, -1.554e-5
0.505, 1.912e-6, -1.544e-5
0.500, 2.009e-6, -1.534e-5
0.495, 2.100e-6, -1.524e-5
0.490, 2.202e-6, -1.513e-5
0.485, 2.298e-6, -1.501e-5
0.480, 2.407e-6, -1.489e-5
0.475, 2.498e-6, -1.477e-5
0.470, 2.601e-6, -1.464e-5
0.465, 2.693e-6, -1.450e-5
0.460, 2.789e-6, -1.436e-5
0.455, 2.870e-6, -1.422e-5
0.450, 2.949e-6, -1.407e-5
0.445, 3.012e-6, -1.392e-5
0.440, 3.067e-6, -1.377e-5
0.435, 3.105e-6, -1.361e-5
0.430, 3.129e-6, -1.346e-5
0.425, 3.132e-6, -1.330e-5
0.420, 3.127e-6, -1.314e-5
0.415, 3.092e-6, -1.299e-5
0.410, 3.043e-6, -1.284e-5
0.405, 2.982e-6, -1.269e-5
0.400, 2.910e-6, -1.254e-5
0.395, 2.819e-6, -1.240e-5
0.390, 2.728e-6, -1.227e-5
0.385, 2.623e-6, -1.213e-5
0.380, 2.520e-6, -1.201e-5
0.375, 2.407e-6, -1.189e-5
0.370, 2.290e-6, -1.177e-5
0.365, 2.172e-6, -1.167e-5
0.360, 2.063e-6, -1.156e-5
0.355, 1.951e-6, -1.146e-5
0.350, 1.848e-6, -1.137e-5
0.345, 1.743e-6, -1.129e-5
0.340, 1.653e-6, -1.120e-5
0.335, 1.559e-6, -1.112e-5
0.330, 1.476e-6, -1.105e-5
0.325, 1.377e-6, -1.098e-5
0.320, 1.301e-6, -1.092e-5
0.315, 1.231e-6, -1.086e-5
0.310, 1.171e-6, -1.080e-5
0.305, 1.107e-6, -1.074e-5
0.300, 1.055e-6, -1.069e-5
0.295, 1.000e-6, -1.064e-5
0.290, 9.525e-7, -1.059e-5
0.285, 9.070e-7, -1.055e-5
0.280, 8.704e-7, -1.050e-5
0.275, 8.285e-7, -1.046e-5
0.270, 7.915e-7, -1.042e-5
0.265, 7.544e-7, -1.038e-5
0.260, 7.269e-7, -1.035e-5
0.255, 6.891e-7, -1.031e-5
0.250, 6.670e-7, -1.028e-5
0.245, 6.360e-7, -1.025e-5
0.240, 6.139e-7, -1.022e-5
0.235, 5.872e-7, -1.019e-5
0.230, 5.684e-7, -1.016e-5
0.225, 5.415e-7, -1.013e-5
0.220, 5.272e-7, -1.011e-5
0.215, 5.025e-7, -1.008e-5
0.210, 4.907e-7, -1.006e-5
0.205, 4.743e-7, -1.003e-5
0.200, 4.567e-7, -1.001e-5
0.195, 4.403e-7, -9.987e-6
0.190, 4.302e-7, -9.966e-6
0.185, 4.138e-7, -9.945e-6
0.180, 4.026e-7, -9.925e-6
0.175, 3.900e-7, -9.906e-6
0.170, 3.841e-7, -9.886e-6
0.165, 3.730e-7, -9.868e-6
0.160, 3.635e-7, -9.850e-6
0.155, 3.502e-7, -9.832e-6
0.150, 3.470e-7, -9.815e-6
0.145, 3.386e-7, -9.798e-6
0.140, 3.357e-7, -9.781e-6
0.135, 3.283e-7, -9.765e-6
0.130, 3.249e-7, -9.748e-6
0.125, 3.171e-7, -9.732e-6
0.120, 3.136e-7, -9.717e-6
0.115, 3.068e-7, -9.701e-6
0.110, 3.053e-7, -9.686e-6
0.105, 3.008e-7, -9.671e-6
0.100, 3.011e-7, -9.656e-6
0.095, 2.967e-7, -9.641e-6
0.090, 2.975e-7, -9.626e-6
0.085, 2.942e-7, -9.612e-6
0.080, 2.951e-7, -9.597e-6
0.075, 2.934e-7, -9.582e-6
0.070, 2.947e-7, -9.568e-6
0.065, 2.940e-7, -9.553e-6
0.060, 2.985e-7, -9.538e-6
0.055, 2.988e-7, -9.523e-6
0.050, 3.038e-7, -9.508e-6
0.045, 3.069e-7, -9.492e-6
0.040, 3.142e-7, -9.477e-6
0.035, 3.191e-7, -9.461e-6
0.030, 3.304e-7, -9.444e-6
0.025, 3.374e-7, -9.427e-6
0.020, 3.540e-7, -9.410e-6
0.015, 3.655e-7, -9.391e-6
0.010, 3.853e-7, -9.372e-6
0.005, 4.020e-7, -9.352e-6
0.000, 4.236e-7, -9.331e-6
-0.005, 4.501e-7, -9.308e-6
-0.010, 4.806e-7, -9.284e-6
-0.015, 5.149e-7, -9.259e-6
-0.020, 5.579e-7, -9.231e-6
-0.025, 6.032e-7, -9.201e-6
-0.030, 6.565e-7, -9.168e-6
-0.035, 7.136e-7, -9.132e-6
-0.040, 7.748e-7, -9.093e-6
-0.045, 8.398e-7, -9.051e-6
-0.050, 9.037e-7, -9.006e-6
-0.055, 9.649e-7, -8.958e-6
-0.060, 1.033e-6, -8.906e-6
-0.065, 1.087e-6, -8.852e-6
-0.070, 1.149e-6, -8.794e-6
-0.075, 1.203e-6, -8.734e-6
-0.080, 1.258e-6, -8.671e-6
-0.085, 1.307e-6, -8.606e-6
-0.090, 1.349e-6, -8.539e-6
-0.095, 1.384e-6, -8.469e-6
-0.100, 1.416e-6, -8.399e-6
-0.105, 1.434e-6, -8.327e-6
-0.110, 1.455e-6, -8.254e-6
-0.115, 1.454e-6, -8.181e-6
-0.120, 1.462e-6, -8.108e-6
-0.125, 1.460e-6, -8.035e-6
-0.130, 1.470e-6, -7.962e-6
-0.135, 1.478e-6, -7.888e-6
-0.140, 1.507e-6, -7.813e-6
-0.145, 1.535e-6, -7.736e-6
-0.150, 1.583e-6, -7.657e-6
-0.155, 1.629e-6, -7.575e-6
-0.160, 1.700e-6, -7.490e-6
-0.165, 1.769e-6, -7.402e-6
-0.170, 1.861e-6, -7.309e-6
-0.175, 1.956e-6, -7.211e-6
-0.180, 2.073e-6, -7.107e-6
-0.185, 2.185e-6, -6.998e-6
-0.190, 2.280e-6, -6.884e-6
-0.195, 2.375e-6, -6.765e-6
-0.200, 2.477e-6, -6.641e-6
-0.205, 2.561e-6, -6.513e-6
-0.210, 2.641e-6, -6.381e-6
-0.215, 2.708e-6, -6.246e-6
-0.220, 2.777e-6, -6.107e-6
-0.225, 2.832e-6, -5.965e-6
-0.230, 2.872e-6, -5.822e-6
-0.235, 2.883e-6, -5.678e-6
-0.240, 2.888e-6, -5.533e-6
-0.245, 2.881e-6, -5.389e-6
-0.250, 2.873e-6, -5.246e-6
-0.255, 2.845e-6, -5.103e-6
-0.260, 2.837e-6, -4.962e-6
-0.265, 2.825e-6, -4.820e-6
-0.270, 2.841e-6, -4.678e-6
-0.275, 2.891e-6, -4.534e-6
-0.280, 9.258e-7, -4.487e-6

Segment 9:
-0.275, -5.353e-7, -4.514e-6
-0.270, -9.089e-7, -4.560e-6
-0.265, -1.138e-6, -4.617e-6
-0.260, -1.298e-6, -4.681e-6
-0.255, -1.419e-6, -4.752e-6
-0.250, -1.509e-6, -4.828e-6
-0.245, -1.593e-6, -4.907e-6
-0.240, -1.668e-6, -4.991e-6
-0.235, -1.728e-6, -5.077e-6
-0.230, -1.784e-6, -5.166e-6
-0.225, -1.811e-6, -5.257e-6
-0.220, -1.824e-6, -5.348e-6
-0.215, -1.828e-6, -5.440e-6
-0.210, -1.826e-6, -5.531e-6
-0.205, -1.802e-6, -5.621e-6
-0.200, -1.783e-6, -5.710e-6
-0.195, -1.764e-6, -5.798e-6
-0.190, -1.742e-6, -5.885e-6
-0.185, -1.719e-6, -5.971e-6
-0.180, -1.682e-6, -6.055e-6
-0.175, -1.625e-6, -6.137e-6
-0.170, -1.553e-6, -6.214e-6
-0.165, -1.496e-6, -6.289e-6
-0.160, -1.432e-6, -6.361e-6
-0.155, -1.377e-6, -6.430e-6
-0.150, -1.334e-6, -6.496e-6
-0.145, -1.301e-6, -6.561e-6
-0.140, -1.275e-6, -6.625e-6
-0.135, -1.260e-6, -6.688e-6
-0.130, -1.254e-6, -6.751e-6
-0.125, -1.253e-6, -6.813e-6
-0.120, -1.253e-6, -6.876e-6
-0.115, -1.259e-6, -6.939e-6
-0.110, -1.267e-6, -7.002e-6
-0.105, -1.281e-6, -7.067e-6
-0.100, -1.283e-6, -7.131e-6
-0.095, -1.290e-6, -7.195e-6
-0.090, -1.295e-6, -7.260e-6
-0.085, -1.322e-6, -7.326e-6
-0.080, -1.344e-6, -7.393e-6
-0.075, -1.375e-6, -7.462e-6
-0.070, -1.403e-6, -7.532e-6
-0.065, -1.433e-6, -7.604e-6
-0.060, -1.456e-6, -7.677e-6
-0.055, -1.459e-6, -7.750e-6
-0.050, -1.431e-6, -7.821e-6
-0.045, -1.381e-6, -7.890e-6
-0.040, -1.284e-6, -7.954e-6
-0.035, -1.186e-6, -8.014e-6
-0.030, -1.070e-6, -8.067e-6
-0.025, -9.684e-7, -8.116e-6
-0.020, -8.560e-7, -8.158e-6
-0.015, -7.644e-7, -8.197e-6
-0.010, -6.828e-7, -8.231e-6
-0.005, -6.204e-7, -8.262e-6
-0.000, -5.604e-7, -8.290e-6
0.005, -5.171e-7, -8.316e-6
0.010, -4.717e-7, -8.339e-6
0.015, -4.450e-7, -8.361e-6
0.020, -4.107e-7, -8.382e-6
0.025, -3.886e-7, -8.401e-6
0.030, -3.613e-7, -8.419e-6
0.035, -3.423e-7, -8.437e-6
0.040, -3.210e-7, -8.453e-6
0.045, -3.092e-7, -8.468e-6
0.050, -2.882e-7, -8.483e-6
0.055, -2.770e-7, -8.496e-6
0.060, -2.648e-7, -8.510e-6
0.065, -2.592e-7, -8.523e-6
0.070, -2.479e-7, -8.535e-6
0.075, -2.419e-7, -8.547e-6
0.080, -2.329e-7, -8.559e-6
0.085, -2.301e-7, -8.570e-6
0.090, -2.236e-7, -8.581e-6
0.095, -2.229e-7, -8.593e-6
0.100, -2.179e-7, -8.603e-6
0.105, -2.176e-7, -8.614e-6
0.110, -2.127e-7, -8.625e-6
0.115, -2.130e-7, -8.636e-6
0.120, -2.083e-7, -8.646e-6
0.125, -2.087e-7, -8.656e-6
0.130, -2.037e-7, -8.667e-6
0.135, -2.053e-7, -8.677e-6
0.140, -2.017e-7, -8.687e-6
0.145, -2.027e-7, -8.697e-6
0.150, -1.988e-7, -8.707e-6
0.155, -1.998e-7, -8.717e-6
0.160, -1.959e-7, -8.727e-6
0.165, -1.975e-7, -8.737e-6
0.170, -1.946e-7, -8.746e-6
0.175, -1.957e-7, -8.756e-6
0.180, -1.933e-7, -8.766e-6
0.185, -1.970e-7, -8.776e-6
0.190, -1.958e-7, -8.786e-6
0.195, -1.996e-7, -8.796e-6
0.200, -1.978e-7, -8.805e-6
0.205, -2.012e-7, -8.815e-6
0.210, -1.994e-7, -8.825e-6
0.215, -2.030e-7, -8.836e-6
0.220, -2.012e-7, -8.846e-6
0.225, -2.059e-7, -8.856e-6
0.230, -2.052e-7, -8.866e-6
0.235, -2.093e-7, -8.877e-6
0.240, -2.083e-7, -8.887e-6
0.245, -2.125e-7, -8.898e-6
0.250, -2.101e-7, -8.908e-6
0.255, -2.131e-7, -8.919e-6
0.260, -2.116e-7, -8.929e-6
0.265, -2.143e-7, -8.940e-6
0.270, -2.114e-7, -8.951e-6
0.275, -2.135e-7, -8.961e-6
0.280, -2.115e-7, -8.972e-6
0.285, -2.134e-7, -8.983e-6
0.290, -2.110e-7, -8.993e-6
0.295, -2.136e-7, -9.004e-6
0.300, -2.121e-7, -9.014e-6
0.305, -2.161e-7, -9.025e-6
0.310, -2.142e-7, -9.036e-6
0.315, -2.181e-7, -9.047e-6
0.320, -2.160e-7, -9.058e-6
0.325, -2.201e-7, -9.069e-6
0.330, -2.199e-7, -9.080e-6
0.335, -2.237e-7, -9.091e-6
0.340, -2.223e-7, -9.102e-6
0.345, -2.267e-7, -9.113e-6
0.350, -2.252e-7, -9.125e-6
0.355, -2.296e-7, -9.136e-6
0.360, -2.292e-7, -9.148e-6
0.365, -2.338e-7, -9.159e-6
0.370, -2.335e-7, -9.171e-6
0.375, -2.397e-7, -9.183e-6
0.380, -2.411e-7, -9.195e-6
0.385, -2.475e-7, -9.207e-6
0.390, -2.506e-7, -9.220e-6
0.395, -2.556e-7, -9.233e-6
0.400, -2.593e-7, -9.246e-6
0.405, -2.660e-7, -9.259e-6
0.410, -2.674e-7, -9.272e-6
0.415, -2.755e-7, -9.286e-6
0.420, -2.770e-7, -9.300e-6
0.425, -2.877e-7, -9.314e-6
0.430, -2.947e-7, -9.329e-6
0.435, -3.080e-7, -9.344e-6
0.440, -3.143e-7, -9.360e-6
0.445, -3.237e-7, -9.376e-6
0.450, -3.281e-7, -9.393e-6
0.455, -3.398e-7, -9.410e-6
0.460, -3.481e-7, -9.427e-6
0.465, -3.590e-7, -9.445e-6
0.470, -3.669e-7, -9.463e-6
0.475, -3.794e-7, -9.482e-6
0.480, -3.926e-7, -9.502e-6
0.485, -4.163e-7, -9.523e-6
0.490, -4.285e-7, -9.544e-6
0.495, -4.557e-7, -9.567e-6
0.500, -4.724e-7, -9.591e-6
0.505, -5.043e-7, -9.616e-6
0.510, -5.410e-7, -9.643e-6
0.515, -5.700e-7, -9.671e-6
0.520, -6.025e-7, -9.702e-6
0.525, -6.363e-7, -9.733e-6
0.530, -6.721e-7, -9.767e-6
0.535, -7.120e-7, -9.803e-6
0.540, -7.418e-7, -9.840e-6
0.545, -7.751e-7, -9.878e-6
0.550, -8.058e-7, -9.919e-6
0.555, -8.363e-7, -9.960e-6
0.560, -8.604e-7, -1.000e-5
0.565, -8.894e-7, -1.005e-5
0.570, -9.181e-7, -1.009e-5
0.575, -9.478e-7, -1.014e-5
0.580, -9.687e-7, -1.019e-5
0.585, -9.967e-7, -1.024e-5
0.590, -1.017e-6, -1.029e-5
0.595, -1.045e-6, -1.034e-5
0.600, -1.066e-6, -1.040e-5
0.605, -1.091e-6, -1.045e-5
0.610, -1.106e-6, -1.051e-5
0.615, -1.130e-6, -1.056e-5
0.620, -1.146e-6, -1.062e-5
0.625, -1.162e-6, -1.068e-5
0.630, -1.174e-6, -1.074e-5
0.635, -1.192e-6, -1.080e-5
0.640, -1.205e-6, -1.086e-5
0.645, -1.217e-6, -1.092e-5
0.650, -1.226e-6, -1.098e-5
0.655, -1.239e-6, -1.104e-5
0.660, -1.248e-6, -1.110e-5
0.665, -1.257e-6, -1.117e-5
0.670, -1.266e-6, -1.123e-5
0.675, -1.277e-6, -1.129e-5
0.680, -1.288e-6, -1.136e-5
0.685, -1.297e-6, -1.142e-5
0.690, -1.307e-6, -1.149e-5
0.695, -1.320e-6, -1.155e-5
0.700, -1.327e-6, -1.162e-5
0.705, -1.336e-6, -1.169e-5
0.710, -1.342e-6, -1.175e-5
0.715, -1.351e-6, -1.182e-5
0.720, -1.355e-6, -1.189e-5
0.725, -1.366e-6, -1.196e-5
0.730, -1.371e-6, -1.203e-5
0.735, -1.383e-6, -1.209e-5
0.740, -1.389e-6, -1.216e-5
0.745, -1.397e-6, -1.223e-5
0.750, -1.401e-6, -1.230e-5
0.755, -1.407e-6, -1.237e-5
0.760, -1.414e-6, -1.245e-5
0.765, -1.422e-6, -1.252e-5
0.770, -1.430e-6, -1.259e-5
0.775, -1.437e-6, -1.266e-5
0.780, -1.441e-6, -1.273e-5
0.785, -1.449e-6, -1.280e-5
0.790, -1.453e-6, -1.288e-5
0.795, -1.464e-6, -1.295e-5
0.800, -1.471e-6, -1.302e-5
0.805, -1.482e-6, -1.310e-5
0.810, -1.487e-6, -1.317e-5
0.815, -1.496e-6, -1.325e-5
0.820, -1.495e-6, -1.332e-5
0.825, -1.507e-6, -1.340e-5
0.830, -1.516e-6, -1.347e-5
0.835, -1.530e-6, -1.355e-5
0.840, -1.537e-6, -1.363e-5
0.845, -1.547e-6, -1.370e-5
0.850, -1.553e-6, -1.378e-5
0.855, -1.567e-6, -1.386e-5
0.860, -1.579e-6, -1.394e-5
0.865, -1.590e-6, -1.402e-5
0.870, -1.594e-6, -1.410e-5
0.875, -1.608e-6, -1.418e-5
0.880, -1.621e-6, -1.426e-5
0.885, -1.634e-6, -1.434e-5
0.890, -1.640e-6, -1.442e-5
0.895, -1.652e-6, -1.451e-5
0.900, -1.664e-6, -1.459e-5
0.905, -1.680e-6, -1.467e-5
0.910, -1.691e-6, -1.476e-5
0.915, -1.706e-6, -1.484e-5
0.920, -1.721e-6, -1.493e-5
0.925, -1.734e-6, -1.502e-5
0.930, -1.740e-6, -1.510e-5
0.935, -1.751e-6, -1.519e-5
0.940, -1.761e-6, -1.528e-5
0.945, -1.775e-6, -1.537e-5
0.950, -1.781e-6, -1.546e-5
0.955, -1.789e-6, -1.555e-5
0.960, -1.792e-6, -1.563e-5
0.965, -1.803e-6, -1.572e-5
0.970, -1.810e-6, -1.582e-5
0.975, -1.821e-6, -1.591e-5
0.980, -1.825e-6, -1.600e-5
0.985, -1.832e-6, -1.609e-5
0.990, -1.835e-6, -1.618e-5
0.995, -1.842e-6, -1.627e-5
1.000, -1.845e-6, -1.637e-5
1.005, -1.855e-6, -1.646e-5
1.010, -1.859e-6, -1.655e-5
1.015, -1.868e-6, -1.664e-5
1.020, -1.873e-6, -1.674e-5
1.025, -1.879e-6, -1.683e-5
1.030, -1.880e-6, -1.693e-5
1.035, -1.885e-6, -1.702e-5
1.040, -1.885e-6, -1.711e-5
1.045, -1.890e-6, -1.721e-5
1.050, -1.892e-6, -1.730e-5
1.055, -1.897e-6, -1.740e-5
1.060, -1.900e-6, -1.749e-5
1.065, -1.907e-6, -1.759e-5
1.070, -1.912e-6, -1.768e-5
1.075, -1.917e-6, -1.778e-5
1.080, -1.921e-6, -1.788e-5
1.085, -1.927e-6, -1.797e-5
1.090, -1.929e-6, -1.807e-5
1.095, -1.934e-6, -1.817e-5
1.100, -1.937e-6, -1.826e-5
1.105, -1.944e-6, -1.836e-5
1.110, -1.950e-6, -1.846e-5
1.115, -1.962e-6, -1.856e-5
1.120, -1.971e-6, -1.865e-5
1.125, -1.980e-6, -1.875e-5
1.130, -1.984e-6, -1.885e-5
1.135, -1.994e-6, -1.895e-5
1.140, -2.006e-6, -1.905e-5
1.145, -2.021e-6, -1.915e-5
1.150, -1.751e-6, -1.924e-5

Segment 10:
1.145, -1.387e-6, -1.931e-5
1.140, -1.146e-6, -1.937e-5
1.135, -9.643e-7, -1.942e-5
1.130, -8.178e-7, -1.946e-5
1.125, -7.032e-7, -1.949e-5
1.120, -6.092e-7, -1.952e-5
1.115, -5.347e-7, -1.955e-5
1.110, -4.613e-7, -1.957e-5
1.105, -4.081e-7, -1.959e-5
1.100, -3.563e-7, -1.961e-5
1.095, -3.190e-7, -1.963e-5
1.090, -2.771e-7, -1.964e-5
1.085, -2.495e-7, -1.965e-5
1.080, -2.180e-7, -1.966e-5
1.075, -1.944e-7, -1.967e-5
1.070, -1.684e-7, -1.968e-5
1.065, -1.591e-7, -1.969e-5
1.060, -1.407e-7, -1.970e-5
1.055, -1.171e-7, -1.970e-5
1.050, -9.793e-8, -1.971e-5
1.045, -8.401e-8, -1.971e-5
1.040, -7.257e-8, -1.972e-5
1.035, -6.274e-8, -1.972e-5
1.030, -4.440e-8, -1.972e-5
1.025, -3.386e-8, -1.972e-5
1.020, -2.289e-8, -1.972e-5
1.015, -1.834e-8, -1.972e-5
1.010, -7.484e-9, -1.972e-5
1.005, 1.785e-9, -1.972e-5
1.000, 1.205e-8, -1.972e-5
0.995, 1.551e-8, -1.972e-5
0.990, 2.367e-8, -1.972e-5
0.985, 2.473e-8, -1.972e-5
0.980, 3.383e-8, -1.972e-5
0.975, 3.748e-8, -1.972e-5
0.970, 4.694e-8, -1.971e-5
0.965, 5.283e-8, -1.971e-5
0.960, 6.002e-8, -1.971e-5
0.955, 6.311e-8, -1.971e-5
0.950, 7.008e-8, -1.970e-5
0.945, 7.028e-8, -1.970e-5
0.940, 7.692e-8, -1.970e-5
0.935, 7.797e-8, -1.969e-5
0.930, 8.599e-8, -1.969e-5
0.925, 8.992e-8, -1.968e-5
0.920, 9.890e-8, -1.968e-5
0.915, 1.026e-7, -1.967e-5
0.910, 1.100e-7, -1.967e-5
0.905, 1.124e-7, -1.966e-5
0.900, 1.185e-7, -1.966e-5
0.895, 1.191e-7, -1.965e-5
0.890, 1.247e-7, -1.964e-5
0.885, 1.258e-7, -1.964e-5
0.880, 1.325e-7, -1.963e-5
0.875, 1.361e-7, -1.962e-5
0.870, 1.431e-7, -1.962e-5
0.865, 1.484e-7, -1.961e-5
0.860, 1.554e-7, -1.960e-5
0.855, 1.590e-7, -1.959e-5
0.850, 1.652e-7, -1.958e-5
0.845, 1.666e-7, -1.958e-5
0.840, 1.725e-7, -1.957e-5
0.835, 1.738e-7, -1.956e-5
0.830, 1.814e-7, -1.955e-5
0.825, 1.868e-7, -1.954e-5
0.820, 1.931e-7, -1.953e-5
0.815, 2.006e-7, -1.952e-5
0.810, 2.088e-7, -1.951e-5
0.805, 2.117e-7, -1.950e-5
0.800, 2.187e-7, -1.949e-5
0.795, 2.200e-7, -1.948e-5
0.790, 2.270e-7, -1.947e-5
0.785, 2.318e-7, -1.946e-5
0.780, 2.398e-7, -1.944e-5
0.775, 2.507e-7, -1.943e-5
0.770, 2.580e-7, -1.942e-5
0.765, 2.675e-7, -1.940e-5
0.760, 2.762e-7, -1.939e-5
0.755, 2.840e-7, -1.938e-5
0.750, 2.944e-7, -1.936e-5
0.745, 3.023e-7, -1.935e-5
0.740, 3.099e-7, -1.933e-5
0.735, 3.138e-7, -1.932e-5
0.730, 3.223e-7, -1.930e-5
0.725, 3.322e-7, -1.928e-5
0.720, 3.482e-7, -1.927e-5
0.715, 3.574e-7, -1.925e-5
0.710, 3.674e-7, -1.923e-5
0.705, 3.746e-7, -1.921e-5
0.700, 3.923e-7, -1.919e-5
0.695, 4.053e-7, -1.917e-5
0.690, 4.166e-7, -1.915e-5
0.685, 4.275e-7, -1.913e-5
0.680, 4.479e-7, -1.911e-5
0.675, 4.585e-7, -1.908e-5
0.670, 4.732e-7, -1.906e-5
0.665, 4.910e-7, -1.903e-5
0.660, 5.088e-7, -1.901e-5
0.655, 5.199e-7, -1.898e-5
0.650, 5.454e-7, -1.896e-5
0.645, 5.601e-7, -1.893e-5
0.640, 5.852e-7, -1.890e-5
0.635, 6.049e-7, -1.887e-5
0.630, 6.240e-7, -1.884e-5
0.625, 6.520e-7, -1.880e-5
0.620, 6.810e-7, -1.877e-5
0.615, 7.039e-7, -1.874e-5
0.610, 7.330e-7, -1.870e-5
0.605, 7.593e-7, -1.866e-5
0.600, 7.966e-7, -1.862e-5
0.595, 8.255e-7, -1.858e-5
0.590, 8.632e-7, -1.854e-5
0.585, 8.989e-7, -1.849e-5
0.580, 9.391e-7, -1.844e-5
0.575, 9.786e-7, -1.840e-5
0.570, 1.019e-6, -1.834e-5
0.565, 1.074e-6, -1.829e-5
0.560, 1.119e-6, -1.824e-5
0.555, 1.171e-6, -1.818e-5
0.550, 1.229e-6, -1.812e-5
0.545, 1.285e-6, -1.805e-5
0.540, 1.350e-6, -1.798e-5
0.535, 1.428e-6, -1.791e-5
0.530, 1.503e-6, -1.784e-5
0.525, 1.577e-6, -1.776e-5
0.520, 1.657e-6, -1.768e-5
0.515, 1.737e-6, -1.759e-5
0.510, 1.825e-6, -1.750e-5
0.505, 1.910e-6, -1.740e-5
0.500, 2.005e-6, -1.730e-5
0.495, 2.097e-6, -1.720e-5
0.490, 2.198e-6, -1.709e-5
0.485, 2.295e-6, -1.697e-5
0.480, 2.400e-6, -1.685e-5
0.475, 2.492e-6, -1.673e-5
0.470, 2.596e-6, -1.660e-5
0.465, 2.684e-6, -1.646e-5
0.460, 2.779e-6, -1.632e-5
0.455, 2.862e-6, -1.618e-5
0.450, 2.938e-6, -1.603e-5
0.445, 3.005e-6, -1.588e-5
0.440, 3.056e-6, -1.573e-5
0.435, 3.095e-6, -1.558e-5
0.430, 3.116e-6, -1.542e-5
0.425, 3.122e-6, -1.526e-5
0.420, 3.107e-6, -1.511e-5
0.415, 3.080e-6, -1.496e-5
0.410, 3.031e-6, -1.480e-5
0.405, 2.963e-6, -1.466e-5
0.400, 2.891e-6, -1.451e-5
0.395, 2.805e-6, -1.437e-5
0.390, 2.711e-6, -1.423e-5
0.385, 2.609e-6, -1.410e-5
0.380, 2.500e-6, -1.398e-5
0.375, 2.388e-6, -1.386e-5
0.370, 2.278e-6, -1.375e-5
0.365, 2.163e-6, -1.364e-5
0.360, 2.053e-6, -1.354e-5
0.355, 1.941e-6, -1.344e-5
0.350, 1.847e-6, -1.335e-5
0.345, 1.739e-6, -1.326e-5
0.340, 1.654e-6, -1.318e-5
0.335, 1.555e-6, -1.310e-5
0.330, 1.473e-6, -1.303e-5
0.325, 1.376e-6, -1.296e-5
0.320, 1.300e-6, -1.289e-5
0.315, 1.231e-6, -1.283e-5
0.310, 1.169e-6, -1.277e-5
0.305, 1.103e-6, -1.272e-5
0.300, 1.049e-6, -1.266e-5
0.295, 9.947e-7, -1.261e-5
0.290, 9.457e-7, -1.257e-5
0.285, 8.984e-7, -1.252e-5
0.280, 8.576e-7, -1.248e-5
0.275, 8.169e-7, -1.244e-5
0.270, 7.829e-7, -1.240e-5
0.265, 7.454e-7, -1.236e-5
0.260, 7.132e-7, -1.233e-5
0.255, 6.863e-7, -1.229e-5
0.250, 6.582e-7, -1.226e-5
0.245, 6.280e-7, -1.223e-5
0.240, 6.079e-7, -1.220e-5
0.235, 5.836e-7, -1.217e-5
0.230, 5.619e-7, -1.214e-5
0.225, 5.410e-7, -1.211e-5
0.220, 5.201e-7, -1.209e-5
0.215, 5.024e-7, -1.206e-5
0.210, 4.876e-7, -1.204e-5
0.205, 4.688e-7, -1.201e-5
0.200, 4.589e-7, -1.199e-5
0.195, 4.417e-7, -1.197e-5
0.190, 4.262e-7, -1.195e-5
0.185, 4.122e-7, -1.193e-5
0.180, 4.065e-7, -1.191e-5
0.175, 3.923e-7, -1.189e-5
0.170, 3.810e-7, -1.187e-5
0.165, 3.693e-7, -1.185e-5
0.160, 3.632e-7, -1.183e-5
0.155, 3.523e-7, -1.181e-5
0.150, 3.466e-7, -1.180e-5
0.145, 3.354e-7, -1.178e-5
0.140, 3.291e-7, -1.176e-5
0.135, 3.221e-7, -1.175e-5
0.130, 3.195e-7, -1.173e-5
0.125, 3.138e-7, -1.172e-5
0.120, 3.132e-7, -1.170e-5
0.115, 3.072e-7, -1.168e-5
0.110, 3.079e-7, -1.167e-5
0.105, 3.032e-7, -1.165e-5
0.100, 3.032e-7, -1.164e-5
0.095, 2.994e-7, -1.162e-5
0.090, 2.992e-7, -1.161e-5
0.085, 2.978e-7, -1.159e-5
0.080, 2.982e-7, -1.158e-5
0.075, 2.973e-7, -1.156e-5
0.070, 2.991e-7, -1.155e-5
0.065, 2.992e-7, -1.153e-5
0.060, 3.025e-7, -1.152e-5
0.055, 3.044e-7, -1.150e-5
0.050, 3.090e-7, -1.149e-5
0.045, 3.102e-7, -1.147e-5
0.040, 3.161e-7, -1.146e-5
0.035, 3.184e-7, -1.144e-5
0.030, 3.278e-7, -1.142e-5
0.025, 3.419e-7, -1.141e-5
0.020, 3.563e-7, -1.139e-5
0.015, 3.646e-7, -1.137e-5
0.010, 3.829e-7, -1.135e-5
0.005, 4.026e-7, -1.133e-5
0.000, 4.223e-7, -1.131e-5
-0.005, 4.501e-7, -1.129e-5
-0.010, 4.804e-7, -1.126e-5
-0.015, 5.156e-7, -1.124e-5
-0.020, 5.572e-7, -1.121e-5
-0.025, 6.043e-7, -1.118e-5
-0.030, 6.567e-7, -1.115e-5
-0.035, 7.161e-7, -1.111e-5
-0.040, 7.771e-7, -1.107e-5
-0.045, 8.376e-7, -1.103e-5
-0.050, 8.990e-7, -1.099e-5
-0.055, 9.624e-7, -1.094e-5
-0.060, 1.024e-6, -1.089e-5
-0.065, 1.086e-6, -1.083e-5
-0.070, 1.149e-6, -1.078e-5
-0.075, 1.197e-6, -1.072e-5
-0.080, 1.247e-6, -1.065e-5
-0.085, 1.308e-6, -1.059e-5
-0.090, 1.346e-6, -1.052e-5
-0.095, 1.386e-6, -1.045e-5
-0.100, 1.411e-6, -1.038e-5
-0.105, 1.428e-6, -1.031e-5
-0.110, 1.437e-6, -1.024e-5
-0.115, 1.437e-6, -1.017e-5
-0.120, 1.451e-6, -1.009e-5
-0.125, 1.456e-6, -1.002e-5
-0.130, 1.465e-6, -9.947e-6
-0.135, 1.479e-6, -9.873e-6
-0.140, 1.511e-6, -9.797e-6
-0.145, 1.539e-6, -9.720e-6
-0.150, 1.583e-6, -9.641e-6
-0.155, 1.636e-6, -9.559e-6
-0.160, 1.699e-6, -9.474e-6
-0.165, 1.778e-6, -9.385e-6
-0.170, 1.872e-6, -9.292e-6
-0.175, 1.977e-6, -9.193e-6
-0.180, 2.081e-6, -9.089e-6
-0.185, 2.198e-6, -8.979e-6
-0.190, 2.298e-6, -8.864e-6
-0.195, 2.402e-6, -8.744e-6
-0.200, 2.496e-6, -8.619e-6
-0.205, 2.586e-6, -8.490e-6
-0.210, 2.662e-6, -8.357e-6
-0.215, 2.727e-6, -8.220e-6
-0.220, 2.786e-6, -8.081e-6
-0.225, 2.821e-6, -7.940e-6
-0.230, 2.851e-6, -7.798e-6
-0.235, 2.867e-6, -7.654e-6
-0.240, 2.872e-6, -7.511e-6
-0.245, 2.874e-6, -7.367e-6
-0.250, 2.856e-6, -7.224e-6
-0.255, 2.828e-6, -7.083e-6
-0.260, 2.819e-6, -6.942e-6
-0.265, 2.824e-6, -6.801e-6
-0.270, 2.836e-6, -6.659e-6
-0.275, 2.902e-6, -6.514e-6
-0.280, 9.486e-7, -6.466e-6
