Nov. 18, 2020   14:52:53
Cyclic Voltammetry
File: c:\documents and settings\administrator\×ÀÃæ\wyz\meohhalf.txt
Data Source:  Experiment
Instrument Model:  CHI600B
Header: 
Note: 

Init E (V) = 0.65
High E (V) = 1.15
Low E (V) = -0.19
Init P/N = P
Scan Rate (V/s) = 0.1
Segment = 10
Sample Interval (V) = 0.005
Quiet Time (sec) = 2
Sensitivity (A/V) = 1e-5

Segment 1:

Segment 2:
Ep = 0.465V
ip = 1.324e-6A
Ah = 1.027e-6C

Ep = -0.185V
ip = 1.190e-6A
Ah = 9.606e-7C

Segment 3:
Ep = 0.490V
ip = -3.685e-6A
Ah = -3.112e-6C

Segment 4:
Ep = 0.465V
ip = 1.442e-6A
Ah = 1.164e-6C

Ep = -0.185V
ip = 1.160e-6A
Ah = 9.611e-7C

Segment 5:
Ep = 0.490V
ip = -3.922e-6A
Ah = -3.234e-6C

Segment 6:
Ep = 0.465V
ip = 1.478e-6A
Ah = 1.181e-6C

Ep = -0.185V
ip = 1.113e-6A
Ah = 9.406e-7C

Segment 7:
Ep = 0.490V
ip = -3.845e-6A
Ah = -3.119e-6C

Segment 8:
Ep = 0.465V
ip = 1.504e-6A
Ah = 1.218e-6C

Ep = -0.185V
ip = 1.115e-6A
Ah = 9.314e-7C

Segment 9:
Ep = 0.490V
ip = -3.871e-6A
Ah = -3.091e-6C

Segment 10:
Ep = 0.470V
ip = 1.528e-6A
Ah = 1.155e-6C

Ep = -0.185V
ip = 1.125e-6A
Ah = 9.570e-7C

Potential/V, Current/A, Charge/C

Segment 1:
0.655, -1.850e-6, -9.250e-8
0.660, -1.823e-6, -1.837e-7
0.665, -1.797e-6, -2.735e-7
0.670, -1.791e-6, -3.631e-7
0.675, -1.787e-6, -4.524e-7
0.680, -1.790e-6, -5.419e-7
0.685, -1.793e-6, -6.316e-7
0.690, -1.805e-6, -7.218e-7
0.695, -1.814e-6, -8.125e-7
0.700, -1.828e-6, -9.039e-7
0.705, -1.832e-6, -9.955e-7
0.710, -1.844e-6, -1.088e-6
0.715, -1.854e-6, -1.180e-6
0.720, -1.867e-6, -1.274e-6
0.725, -1.873e-6, -1.367e-6
0.730, -1.883e-6, -1.462e-6
0.735, -1.885e-6, -1.556e-6
0.740, -1.892e-6, -1.650e-6
0.745, -1.895e-6, -1.745e-6
0.750, -1.900e-6, -1.840e-6
0.755, -1.902e-6, -1.935e-6
0.760, -1.908e-6, -2.031e-6
0.765, -1.908e-6, -2.126e-6
0.770, -1.913e-6, -2.222e-6
0.775, -1.917e-6, -2.318e-6
0.780, -1.924e-6, -2.414e-6
0.785, -1.927e-6, -2.510e-6
0.790, -1.936e-6, -2.607e-6
0.795, -1.942e-6, -2.704e-6
0.800, -1.954e-6, -2.802e-6
0.805, -1.965e-6, -2.900e-6
0.810, -1.979e-6, -2.999e-6
0.815, -1.990e-6, -3.098e-6
0.820, -2.004e-6, -3.199e-6
0.825, -2.021e-6, -3.300e-6
0.830, -2.048e-6, -3.402e-6
0.835, -2.074e-6, -3.506e-6
0.840, -2.083e-6, -3.610e-6
0.845, -2.112e-6, -3.715e-6
0.850, -2.146e-6, -3.823e-6
0.855, -2.177e-6, -3.932e-6
0.860, -2.211e-6, -4.042e-6
0.865, -2.244e-6, -4.154e-6
0.870, -2.284e-6, -4.269e-6
0.875, -2.321e-6, -4.385e-6
0.880, -2.365e-6, -4.503e-6
0.885, -2.404e-6, -4.623e-6
0.890, -2.460e-6, -4.746e-6
0.895, -2.498e-6, -4.871e-6
0.900, -2.552e-6, -4.999e-6
0.905, -2.597e-6, -5.128e-6
0.910, -2.657e-6, -5.261e-6
0.915, -2.705e-6, -5.397e-6
0.920, -2.766e-6, -5.535e-6
0.925, -2.826e-6, -5.676e-6
0.930, -2.882e-6, -5.820e-6
0.935, -2.941e-6, -5.967e-6
0.940, -3.006e-6, -6.118e-6
0.945, -3.069e-6, -6.271e-6
0.950, -3.133e-6, -6.428e-6
0.955, -3.195e-6, -6.588e-6
0.960, -3.257e-6, -6.750e-6
0.965, -3.325e-6, -6.917e-6
0.970, -3.392e-6, -7.086e-6
0.975, -3.461e-6, -7.259e-6
0.980, -3.533e-6, -7.436e-6
0.985, -3.602e-6, -7.616e-6
0.990, -3.668e-6, -7.799e-6
0.995, -3.740e-6, -7.986e-6
1.000, -3.808e-6, -8.177e-6
1.005, -3.869e-6, -8.370e-6
1.010, -3.936e-6, -8.567e-6
1.015, -3.996e-6, -8.767e-6
1.020, -4.054e-6, -8.970e-6
1.025, -4.111e-6, -9.175e-6
1.030, -4.170e-6, -9.384e-6
1.035, -4.227e-6, -9.595e-6
1.040, -4.273e-6, -9.809e-6
1.045, -4.320e-6, -1.002e-5
1.050, -4.369e-6, -1.024e-5
1.055, -4.418e-6, -1.046e-5
1.060, -4.465e-6, -1.069e-5
1.065, -4.510e-6, -1.091e-5
1.070, -4.556e-6, -1.114e-5
1.075, -4.593e-6, -1.137e-5
1.080, -4.637e-6, -1.160e-5
1.085, -4.672e-6, -1.184e-5
1.090, -4.706e-6, -1.207e-5
1.095, -4.737e-6, -1.231e-5
1.100, -4.769e-6, -1.255e-5
1.105, -4.790e-6, -1.279e-5
1.110, -4.811e-6, -1.303e-5
1.115, -4.828e-6, -1.327e-5
1.120, -4.844e-6, -1.351e-5
1.125, -4.861e-6, -1.375e-5
1.130, -4.878e-6, -1.400e-5
1.135, -4.887e-6, -1.424e-5
1.140, -4.901e-6, -1.449e-5
1.145, -4.916e-6, -1.473e-5
1.150, -4.575e-6, -1.496e-5

Segment 2:
1.145, -3.994e-6, -1.516e-5
1.140, -3.564e-6, -1.534e-5
1.135, -3.212e-6, -1.550e-5
1.130, -2.927e-6, -1.565e-5
1.125, -2.680e-6, -1.578e-5
1.120, -2.474e-6, -1.590e-5
1.115, -2.291e-6, -1.602e-5
1.110, -2.129e-6, -1.612e-5
1.105, -1.982e-6, -1.622e-5
1.100, -1.855e-6, -1.632e-5
1.095, -1.732e-6, -1.640e-5
1.090, -1.622e-6, -1.648e-5
1.085, -1.524e-6, -1.656e-5
1.080, -1.439e-6, -1.663e-5
1.075, -1.355e-6, -1.670e-5
1.070, -1.283e-6, -1.676e-5
1.065, -1.210e-6, -1.682e-5
1.060, -1.146e-6, -1.688e-5
1.055, -1.085e-6, -1.694e-5
1.050, -1.031e-6, -1.699e-5
1.045, -9.724e-7, -1.704e-5
1.040, -9.273e-7, -1.708e-5
1.035, -8.779e-7, -1.713e-5
1.030, -8.342e-7, -1.717e-5
1.025, -7.858e-7, -1.721e-5
1.020, -7.444e-7, -1.724e-5
1.015, -7.094e-7, -1.728e-5
1.010, -6.745e-7, -1.731e-5
1.005, -6.342e-7, -1.735e-5
1.000, -5.983e-7, -1.738e-5
0.995, -5.663e-7, -1.740e-5
0.990, -5.351e-7, -1.743e-5
0.985, -5.119e-7, -1.746e-5
0.980, -4.814e-7, -1.748e-5
0.975, -4.466e-7, -1.750e-5
0.970, -4.272e-7, -1.752e-5
0.965, -3.952e-7, -1.754e-5
0.960, -3.733e-7, -1.756e-5
0.955, -3.462e-7, -1.758e-5
0.950, -3.319e-7, -1.760e-5
0.945, -3.010e-7, -1.761e-5
0.940, -2.851e-7, -1.763e-5
0.935, -2.556e-7, -1.764e-5
0.930, -2.447e-7, -1.765e-5
0.925, -2.190e-7, -1.766e-5
0.920, -2.012e-7, -1.767e-5
0.915, -1.819e-7, -1.768e-5
0.910, -1.614e-7, -1.769e-5
0.905, -1.420e-7, -1.770e-5
0.900, -1.308e-7, -1.770e-5
0.895, -1.233e-7, -1.771e-5
0.890, -1.078e-7, -1.771e-5
0.885, -8.570e-8, -1.772e-5
0.880, -6.880e-8, -1.772e-5
0.875, -4.816e-8, -1.772e-5
0.870, -3.550e-8, -1.773e-5
0.865, -1.490e-8, -1.773e-5
0.860, -5.466e-9, -1.773e-5
0.855, 6.077e-9, -1.773e-5
0.850, 1.711e-8, -1.773e-5
0.845, 3.703e-8, -1.772e-5
0.840, 4.337e-8, -1.772e-5
0.835, 5.397e-8, -1.772e-5
0.830, 6.484e-8, -1.772e-5
0.825, 8.159e-8, -1.771e-5
0.820, 8.861e-8, -1.771e-5
0.815, 1.007e-7, -1.770e-5
0.810, 1.079e-7, -1.770e-5
0.805, 1.245e-7, -1.769e-5
0.800, 1.342e-7, -1.768e-5
0.795, 1.442e-7, -1.768e-5
0.790, 1.491e-7, -1.767e-5
0.785, 1.645e-7, -1.766e-5
0.780, 1.722e-7, -1.765e-5
0.775, 1.859e-7, -1.764e-5
0.770, 1.915e-7, -1.763e-5
0.765, 2.023e-7, -1.762e-5
0.760, 2.104e-7, -1.761e-5
0.755, 2.255e-7, -1.760e-5
0.750, 2.372e-7, -1.759e-5
0.745, 2.510e-7, -1.758e-5
0.740, 2.583e-7, -1.756e-5
0.735, 2.659e-7, -1.755e-5
0.730, 2.751e-7, -1.754e-5
0.725, 2.840e-7, -1.752e-5
0.720, 2.938e-7, -1.751e-5
0.715, 3.100e-7, -1.749e-5
0.710, 3.204e-7, -1.748e-5
0.705, 3.355e-7, -1.746e-5
0.700, 3.427e-7, -1.744e-5
0.695, 3.606e-7, -1.742e-5
0.690, 3.741e-7, -1.741e-5
0.685, 3.880e-7, -1.739e-5
0.680, 3.965e-7, -1.737e-5
0.675, 4.170e-7, -1.735e-5
0.670, 4.312e-7, -1.732e-5
0.665, 4.481e-7, -1.730e-5
0.660, 4.657e-7, -1.728e-5
0.655, 4.835e-7, -1.725e-5
0.650, 4.958e-7, -1.723e-5
0.645, 5.208e-7, -1.720e-5
0.640, 5.367e-7, -1.718e-5
0.635, 5.618e-7, -1.715e-5
0.630, 5.810e-7, -1.712e-5
0.625, 6.074e-7, -1.709e-5
0.620, 6.333e-7, -1.706e-5
0.615, 6.558e-7, -1.702e-5
0.610, 6.790e-7, -1.699e-5
0.605, 7.127e-7, -1.696e-5
0.600, 7.385e-7, -1.692e-5
0.595, 7.756e-7, -1.688e-5
0.590, 8.120e-7, -1.684e-5
0.585, 8.492e-7, -1.680e-5
0.580, 8.798e-7, -1.675e-5
0.575, 9.241e-7, -1.671e-5
0.570, 9.645e-7, -1.666e-5
0.565, 1.016e-6, -1.661e-5
0.560, 1.053e-6, -1.655e-5
0.555, 1.109e-6, -1.650e-5
0.550, 1.160e-6, -1.644e-5
0.545, 1.220e-6, -1.638e-5
0.540, 1.275e-6, -1.632e-5
0.535, 1.342e-6, -1.625e-5
0.530, 1.420e-6, -1.618e-5
0.525, 1.495e-6, -1.610e-5
0.520, 1.563e-6, -1.603e-5
0.515, 1.645e-6, -1.594e-5
0.510, 1.716e-6, -1.586e-5
0.505, 1.796e-6, -1.577e-5
0.500, 1.867e-6, -1.567e-5
0.495, 1.945e-6, -1.558e-5
0.490, 2.013e-6, -1.548e-5
0.485, 2.082e-6, -1.537e-5
0.480, 2.136e-6, -1.527e-5
0.475, 2.184e-6, -1.516e-5
0.470, 2.212e-6, -1.505e-5
0.465, 2.227e-6, -1.493e-5
0.460, 2.211e-6, -1.482e-5
0.455, 2.174e-6, -1.471e-5
0.450, 2.101e-6, -1.461e-5
0.445, 1.998e-6, -1.451e-5
0.440, 1.858e-6, -1.442e-5
0.435, 1.677e-6, -1.433e-5
0.430, 1.443e-6, -1.426e-5
0.425, 1.173e-6, -1.420e-5
0.420, 8.720e-7, -1.416e-5
0.415, 5.475e-7, -1.413e-5
0.410, 1.824e-7, -1.412e-5
0.405, -1.942e-7, -1.413e-5
0.400, -5.698e-7, -1.416e-5
0.395, -9.380e-7, -1.421e-5
0.390, -1.305e-6, -1.427e-5
0.385, -1.654e-6, -1.436e-5
0.380, -1.994e-6, -1.446e-5
0.375, -2.290e-6, -1.457e-5
0.370, -2.560e-6, -1.470e-5
0.365, -2.796e-6, -1.484e-5
0.360, -3.003e-6, -1.499e-5
0.355, -3.176e-6, -1.515e-5
0.350, -3.317e-6, -1.531e-5
0.345, -3.432e-6, -1.548e-5
0.340, -3.512e-6, -1.566e-5
0.335, -3.565e-6, -1.584e-5
0.330, -3.603e-6, -1.602e-5
0.325, -3.609e-6, -1.620e-5
0.320, -3.592e-6, -1.638e-5
0.315, -3.560e-6, -1.656e-5
0.310, -3.506e-6, -1.673e-5
0.305, -3.437e-6, -1.690e-5
0.300, -3.356e-6, -1.707e-5
0.295, -3.258e-6, -1.723e-5
0.290, -3.157e-6, -1.739e-5
0.285, -3.039e-6, -1.754e-5
0.280, -2.915e-6, -1.769e-5
0.275, -2.778e-6, -1.783e-5
0.270, -2.637e-6, -1.796e-5
0.265, -2.499e-6, -1.809e-5
0.260, -2.348e-6, -1.820e-5
0.255, -2.207e-6, -1.831e-5
0.250, -2.067e-6, -1.842e-5
0.245, -1.922e-6, -1.851e-5
0.240, -1.794e-6, -1.860e-5
0.235, -1.646e-6, -1.868e-5
0.230, -1.521e-6, -1.876e-5
0.225, -1.398e-6, -1.883e-5
0.220, -1.293e-6, -1.889e-5
0.215, -1.183e-6, -1.895e-5
0.210, -1.081e-6, -1.901e-5
0.205, -9.831e-7, -1.906e-5
0.200, -8.949e-7, -1.910e-5
0.195, -8.073e-7, -1.914e-5
0.190, -7.314e-7, -1.918e-5
0.185, -6.539e-7, -1.921e-5
0.180, -5.889e-7, -1.924e-5
0.175, -5.240e-7, -1.927e-5
0.170, -4.614e-7, -1.929e-5
0.165, -4.034e-7, -1.931e-5
0.160, -3.515e-7, -1.933e-5
0.155, -2.978e-7, -1.934e-5
0.150, -2.525e-7, -1.936e-5
0.145, -2.055e-7, -1.937e-5
0.140, -1.663e-7, -1.937e-5
0.135, -1.362e-7, -1.938e-5
0.130, -1.086e-7, -1.939e-5
0.125, -7.104e-8, -1.939e-5
0.120, -4.450e-8, -1.939e-5
0.115, -9.149e-9, -1.939e-5
0.110, 2.164e-9, -1.939e-5
0.105, 3.511e-8, -1.939e-5
0.100, 4.495e-8, -1.939e-5
0.095, 6.268e-8, -1.939e-5
0.090, 8.155e-8, -1.938e-5
0.085, 9.352e-8, -1.938e-5
0.080, 9.806e-8, -1.937e-5
0.075, 1.149e-7, -1.937e-5
0.070, 1.278e-7, -1.936e-5
0.065, 1.396e-7, -1.935e-5
0.060, 1.417e-7, -1.935e-5
0.055, 1.479e-7, -1.934e-5
0.050, 1.536e-7, -1.933e-5
0.045, 1.690e-7, -1.932e-5
0.040, 1.776e-7, -1.931e-5
0.035, 1.874e-7, -1.930e-5
0.030, 1.899e-7, -1.929e-5
0.025, 1.967e-7, -1.928e-5
0.020, 2.036e-7, -1.927e-5
0.015, 2.205e-7, -1.926e-5
0.010, 2.315e-7, -1.925e-5
0.005, 2.460e-7, -1.924e-5
0.000, 2.549e-7, -1.923e-5
-0.005, 2.679e-7, -1.921e-5
-0.010, 2.798e-7, -1.920e-5
-0.015, 3.031e-7, -1.918e-5
-0.020, 3.172e-7, -1.917e-5
-0.025, 3.467e-7, -1.915e-5
-0.030, 3.651e-7, -1.913e-5
-0.035, 3.948e-7, -1.911e-5
-0.040, 4.187e-7, -1.909e-5
-0.045, 4.587e-7, -1.907e-5
-0.050, 4.887e-7, -1.904e-5
-0.055, 5.289e-7, -1.902e-5
-0.060, 5.633e-7, -1.899e-5
-0.065, 6.085e-7, -1.896e-5
-0.070, 6.406e-7, -1.893e-5
-0.075, 6.889e-7, -1.889e-5
-0.080, 7.248e-7, -1.886e-5
-0.085, 7.710e-7, -1.882e-5
-0.090, 8.069e-7, -1.878e-5
-0.095, 8.580e-7, -1.874e-5
-0.100, 9.007e-7, -1.869e-5
-0.105, 9.536e-7, -1.864e-5
-0.110, 9.906e-7, -1.859e-5
-0.115, 1.038e-6, -1.854e-5
-0.120, 1.084e-6, -1.849e-5
-0.125, 1.133e-6, -1.843e-5
-0.130, 1.182e-6, -1.837e-5
-0.135, 1.233e-6, -1.831e-5
-0.140, 1.276e-6, -1.825e-5
-0.145, 1.334e-6, -1.818e-5
-0.150, 1.375e-6, -1.811e-5
-0.155, 1.428e-6, -1.804e-5
-0.160, 1.472e-6, -1.797e-5
-0.165, 1.527e-6, -1.789e-5
-0.170, 1.568e-6, -1.781e-5
-0.175, 1.619e-6, -1.773e-5
-0.180, 1.658e-6, -1.765e-5
-0.185, 1.711e-6, -1.756e-5
-0.190, 1.583e-7, -1.755e-5

Segment 3:
-0.185, -6.163e-7, -1.758e-5
-0.180, -7.624e-7, -1.762e-5
-0.175, -8.299e-7, -1.766e-5
-0.170, -8.762e-7, -1.771e-5
-0.165, -8.969e-7, -1.775e-5
-0.160, -9.153e-7, -1.780e-5
-0.155, -9.165e-7, -1.784e-5
-0.150, -9.217e-7, -1.789e-5
-0.145, -9.097e-7, -1.794e-5
-0.140, -9.040e-7, -1.798e-5
-0.135, -8.866e-7, -1.802e-5
-0.130, -8.782e-7, -1.807e-5
-0.125, -8.506e-7, -1.811e-5
-0.120, -8.392e-7, -1.815e-5
-0.115, -8.125e-7, -1.819e-5
-0.110, -7.929e-7, -1.823e-5
-0.105, -7.665e-7, -1.827e-5
-0.100, -7.430e-7, -1.831e-5
-0.095, -7.114e-7, -1.834e-5
-0.090, -6.895e-7, -1.838e-5
-0.085, -6.612e-7, -1.841e-5
-0.080, -6.357e-7, -1.844e-5
-0.075, -6.010e-7, -1.847e-5
-0.070, -5.770e-7, -1.850e-5
-0.065, -5.459e-7, -1.853e-5
-0.060, -5.218e-7, -1.856e-5
-0.055, -4.925e-7, -1.858e-5
-0.050, -4.721e-7, -1.860e-5
-0.045, -4.414e-7, -1.863e-5
-0.040, -4.203e-7, -1.865e-5
-0.035, -3.928e-7, -1.867e-5
-0.030, -3.756e-7, -1.869e-5
-0.025, -3.548e-7, -1.870e-5
-0.020, -3.369e-7, -1.872e-5
-0.015, -3.188e-7, -1.874e-5
-0.010, -3.062e-7, -1.875e-5
-0.005, -2.834e-7, -1.877e-5
-0.000, -2.730e-7, -1.878e-5
0.005, -2.627e-7, -1.879e-5
0.010, -2.560e-7, -1.881e-5
0.015, -2.470e-7, -1.882e-5
0.020, -2.463e-7, -1.883e-5
0.025, -2.416e-7, -1.884e-5
0.030, -2.423e-7, -1.885e-5
0.035, -2.398e-7, -1.887e-5
0.040, -2.445e-7, -1.888e-5
0.045, -2.438e-7, -1.889e-5
0.050, -2.484e-7, -1.890e-5
0.055, -2.494e-7, -1.892e-5
0.060, -2.576e-7, -1.893e-5
0.065, -2.640e-7, -1.894e-5
0.070, -2.807e-7, -1.896e-5
0.075, -2.892e-7, -1.897e-5
0.080, -3.015e-7, -1.899e-5
0.085, -3.154e-7, -1.900e-5
0.090, -3.356e-7, -1.902e-5
0.095, -3.430e-7, -1.903e-5
0.100, -3.591e-7, -1.905e-5
0.105, -3.800e-7, -1.907e-5
0.110, -3.981e-7, -1.909e-5
0.115, -4.205e-7, -1.911e-5
0.120, -4.421e-7, -1.913e-5
0.125, -4.627e-7, -1.916e-5
0.130, -4.908e-7, -1.918e-5
0.135, -5.165e-7, -1.921e-5
0.140, -5.408e-7, -1.924e-5
0.145, -5.705e-7, -1.926e-5
0.150, -6.000e-7, -1.929e-5
0.155, -6.308e-7, -1.933e-5
0.160, -6.685e-7, -1.936e-5
0.165, -7.012e-7, -1.939e-5
0.170, -7.365e-7, -1.943e-5
0.175, -7.733e-7, -1.947e-5
0.180, -8.187e-7, -1.951e-5
0.185, -8.538e-7, -1.955e-5
0.190, -8.958e-7, -1.960e-5
0.195, -9.373e-7, -1.964e-5
0.200, -9.814e-7, -1.969e-5
0.205, -1.024e-6, -1.975e-5
0.210, -1.075e-6, -1.980e-5
0.215, -1.119e-6, -1.985e-5
0.220, -1.169e-6, -1.991e-5
0.225, -1.217e-6, -1.997e-5
0.230, -1.271e-6, -2.004e-5
0.235, -1.322e-6, -2.010e-5
0.240, -1.377e-6, -2.017e-5
0.245, -1.429e-6, -2.024e-5
0.250, -1.492e-6, -2.032e-5
0.255, -1.544e-6, -2.040e-5
0.260, -1.605e-6, -2.048e-5
0.265, -1.661e-6, -2.056e-5
0.270, -1.736e-6, -2.065e-5
0.275, -1.795e-6, -2.074e-5
0.280, -1.859e-6, -2.083e-5
0.285, -1.917e-6, -2.092e-5
0.290, -1.987e-6, -2.102e-5
0.295, -2.052e-6, -2.113e-5
0.300, -2.122e-6, -2.123e-5
0.305, -2.193e-6, -2.134e-5
0.310, -2.271e-6, -2.146e-5
0.315, -2.344e-6, -2.157e-5
0.320, -2.425e-6, -2.169e-5
0.325, -2.509e-6, -2.182e-5
0.330, -2.599e-6, -2.195e-5
0.335, -2.688e-6, -2.208e-5
0.340, -2.782e-6, -2.222e-5
0.345, -2.886e-6, -2.237e-5
0.350, -2.995e-6, -2.252e-5
0.355, -3.102e-6, -2.267e-5
0.360, -3.221e-6, -2.283e-5
0.365, -3.356e-6, -2.300e-5
0.370, -3.496e-6, -2.318e-5
0.375, -3.644e-6, -2.336e-5
0.380, -3.810e-6, -2.355e-5
0.385, -3.978e-6, -2.375e-5
0.390, -4.159e-6, -2.396e-5
0.395, -4.344e-6, -2.417e-5
0.400, -4.544e-6, -2.440e-5
0.405, -4.748e-6, -2.464e-5
0.410, -4.982e-6, -2.489e-5
0.415, -5.200e-6, -2.515e-5
0.420, -5.432e-6, -2.542e-5
0.425, -5.666e-6, -2.570e-5
0.430, -5.886e-6, -2.600e-5
0.435, -6.108e-6, -2.630e-5
0.440, -6.319e-6, -2.662e-5
0.445, -6.529e-6, -2.694e-5
0.450, -6.727e-6, -2.728e-5
0.455, -6.918e-6, -2.763e-5
0.460, -7.109e-6, -2.798e-5
0.465, -7.294e-6, -2.835e-5
0.470, -7.474e-6, -2.872e-5
0.475, -7.627e-6, -2.910e-5
0.480, -7.749e-6, -2.949e-5
0.485, -7.823e-6, -2.988e-5
0.490, -7.846e-6, -3.027e-5
0.495, -7.830e-6, -3.066e-5
0.500, -7.778e-6, -3.105e-5
0.505, -7.703e-6, -3.144e-5
0.510, -7.604e-6, -3.182e-5
0.515, -7.479e-6, -3.219e-5
0.520, -7.342e-6, -3.256e-5
0.525, -7.172e-6, -3.292e-5
0.530, -6.990e-6, -3.327e-5
0.535, -6.796e-6, -3.361e-5
0.540, -6.588e-6, -3.394e-5
0.545, -6.359e-6, -3.425e-5
0.550, -6.139e-6, -3.456e-5
0.555, -5.921e-6, -3.486e-5
0.560, -5.711e-6, -3.514e-5
0.565, -5.498e-6, -3.542e-5
0.570, -5.306e-6, -3.568e-5
0.575, -5.107e-6, -3.594e-5
0.580, -4.925e-6, -3.618e-5
0.585, -4.729e-6, -3.642e-5
0.590, -4.561e-6, -3.665e-5
0.595, -4.396e-6, -3.687e-5
0.600, -4.241e-6, -3.708e-5
0.605, -4.094e-6, -3.729e-5
0.610, -3.949e-6, -3.748e-5
0.615, -3.814e-6, -3.767e-5
0.620, -3.688e-6, -3.786e-5
0.625, -3.564e-6, -3.804e-5
0.630, -3.447e-6, -3.821e-5
0.635, -3.333e-6, -3.837e-5
0.640, -3.232e-6, -3.854e-5
0.645, -3.129e-6, -3.869e-5
0.650, -3.034e-6, -3.884e-5
0.655, -2.938e-6, -3.899e-5
0.660, -2.856e-6, -3.913e-5
0.665, -2.774e-6, -3.927e-5
0.670, -2.699e-6, -3.941e-5
0.675, -2.623e-6, -3.954e-5
0.680, -2.554e-6, -3.967e-5
0.685, -2.493e-6, -3.979e-5
0.690, -2.428e-6, -3.991e-5
0.695, -2.373e-6, -4.003e-5
0.700, -2.325e-6, -4.015e-5
0.705, -2.273e-6, -4.026e-5
0.710, -2.233e-6, -4.037e-5
0.715, -2.193e-6, -4.048e-5
0.720, -2.155e-6, -4.059e-5
0.725, -2.124e-6, -4.070e-5
0.730, -2.099e-6, -4.080e-5
0.735, -2.065e-6, -4.090e-5
0.740, -2.037e-6, -4.101e-5
0.745, -2.024e-6, -4.111e-5
0.750, -2.007e-6, -4.121e-5
0.755, -1.988e-6, -4.131e-5
0.760, -1.979e-6, -4.141e-5
0.765, -1.968e-6, -4.150e-5
0.770, -1.961e-6, -4.160e-5
0.775, -1.952e-6, -4.170e-5
0.780, -1.950e-6, -4.180e-5
0.785, -1.945e-6, -4.190e-5
0.790, -1.948e-6, -4.199e-5
0.795, -1.951e-6, -4.209e-5
0.800, -1.959e-6, -4.219e-5
0.805, -1.965e-6, -4.229e-5
0.810, -1.976e-6, -4.239e-5
0.815, -1.983e-6, -4.248e-5
0.820, -1.991e-6, -4.258e-5
0.825, -2.009e-6, -4.268e-5
0.830, -2.027e-6, -4.279e-5
0.835, -2.039e-6, -4.289e-5
0.840, -2.069e-6, -4.299e-5
0.845, -2.105e-6, -4.310e-5
0.850, -2.126e-6, -4.320e-5
0.855, -2.154e-6, -4.331e-5
0.860, -2.188e-6, -4.342e-5
0.865, -2.226e-6, -4.353e-5
0.870, -2.265e-6, -4.364e-5
0.875, -2.302e-6, -4.376e-5
0.880, -2.346e-6, -4.388e-5
0.885, -2.389e-6, -4.400e-5
0.890, -2.434e-6, -4.412e-5
0.895, -2.494e-6, -4.424e-5
0.900, -2.539e-6, -4.437e-5
0.905, -2.591e-6, -4.450e-5
0.910, -2.650e-6, -4.463e-5
0.915, -2.704e-6, -4.477e-5
0.920, -2.764e-6, -4.490e-5
0.925, -2.819e-6, -4.505e-5
0.930, -2.887e-6, -4.519e-5
0.935, -2.941e-6, -4.534e-5
0.940, -3.005e-6, -4.549e-5
0.945, -3.065e-6, -4.564e-5
0.950, -3.129e-6, -4.580e-5
0.955, -3.190e-6, -4.596e-5
0.960, -3.261e-6, -4.612e-5
0.965, -3.325e-6, -4.629e-5
0.970, -3.395e-6, -4.646e-5
0.975, -3.460e-6, -4.663e-5
0.980, -3.530e-6, -4.681e-5
0.985, -3.593e-6, -4.698e-5
0.990, -3.667e-6, -4.717e-5
0.995, -3.727e-6, -4.735e-5
1.000, -3.796e-6, -4.754e-5
1.005, -3.859e-6, -4.774e-5
1.010, -3.926e-6, -4.793e-5
1.015, -3.986e-6, -4.813e-5
1.020, -4.055e-6, -4.834e-5
1.025, -4.115e-6, -4.854e-5
1.030, -4.179e-6, -4.875e-5
1.035, -4.237e-6, -4.896e-5
1.040, -4.292e-6, -4.918e-5
1.045, -4.341e-6, -4.939e-5
1.050, -4.390e-6, -4.961e-5
1.055, -4.439e-6, -4.984e-5
1.060, -4.477e-6, -5.006e-5
1.065, -4.518e-6, -5.029e-5
1.070, -4.560e-6, -5.051e-5
1.075, -4.592e-6, -5.074e-5
1.080, -4.623e-6, -5.097e-5
1.085, -4.659e-6, -5.121e-5
1.090, -4.691e-6, -5.144e-5
1.095, -4.717e-6, -5.168e-5
1.100, -4.756e-6, -5.191e-5
1.105, -4.779e-6, -5.215e-5
1.110, -4.813e-6, -5.239e-5
1.115, -4.849e-6, -5.264e-5
1.120, -4.879e-6, -5.288e-5
1.125, -4.908e-6, -5.313e-5
1.130, -4.935e-6, -5.337e-5
1.135, -4.957e-6, -5.362e-5
1.140, -4.981e-6, -5.387e-5
1.145, -5.004e-6, -5.412e-5
1.150, -4.670e-6, -5.435e-5

Segment 4:
1.145, -4.101e-6, -5.456e-5
1.140, -3.683e-6, -5.474e-5
1.135, -3.342e-6, -5.491e-5
1.130, -3.055e-6, -5.506e-5
1.125, -2.809e-6, -5.520e-5
1.120, -2.605e-6, -5.533e-5
1.115, -2.420e-6, -5.545e-5
1.110, -2.255e-6, -5.557e-5
1.105, -2.107e-6, -5.567e-5
1.100, -1.974e-6, -5.577e-5
1.095, -1.856e-6, -5.586e-5
1.090, -1.746e-6, -5.595e-5
1.085, -1.633e-6, -5.603e-5
1.080, -1.543e-6, -5.611e-5
1.075, -1.460e-6, -5.618e-5
1.070, -1.383e-6, -5.625e-5
1.065, -1.312e-6, -5.632e-5
1.060, -1.243e-6, -5.638e-5
1.055, -1.179e-6, -5.644e-5
1.050, -1.120e-6, -5.649e-5
1.045, -1.058e-6, -5.655e-5
1.040, -1.007e-6, -5.660e-5
1.035, -9.547e-7, -5.665e-5
1.030, -9.067e-7, -5.669e-5
1.025, -8.584e-7, -5.673e-5
1.020, -8.158e-7, -5.677e-5
1.015, -7.686e-7, -5.681e-5
1.010, -7.325e-7, -5.685e-5
1.005, -6.946e-7, -5.688e-5
1.000, -6.563e-7, -5.692e-5
0.995, -6.172e-7, -5.695e-5
0.990, -5.822e-7, -5.698e-5
0.985, -5.539e-7, -5.701e-5
0.980, -5.195e-7, -5.703e-5
0.975, -4.823e-7, -5.706e-5
0.970, -4.606e-7, -5.708e-5
0.965, -4.263e-7, -5.710e-5
0.960, -4.049e-7, -5.712e-5
0.955, -3.730e-7, -5.714e-5
0.950, -3.521e-7, -5.716e-5
0.945, -3.247e-7, -5.717e-5
0.940, -3.057e-7, -5.719e-5
0.935, -2.761e-7, -5.720e-5
0.930, -2.586e-7, -5.721e-5
0.925, -2.317e-7, -5.723e-5
0.920, -2.183e-7, -5.724e-5
0.915, -1.904e-7, -5.725e-5
0.910, -1.768e-7, -5.726e-5
0.905, -1.620e-7, -5.726e-5
0.900, -1.445e-7, -5.727e-5
0.895, -1.245e-7, -5.728e-5
0.890, -9.924e-8, -5.728e-5
0.885, -8.353e-8, -5.729e-5
0.880, -7.267e-8, -5.729e-5
0.875, -5.020e-8, -5.729e-5
0.870, -3.590e-8, -5.729e-5
0.865, -2.034e-8, -5.729e-5
0.860, -4.309e-9, -5.730e-5
0.855, 1.336e-8, -5.729e-5
0.850, 2.013e-8, -5.729e-5
0.845, 3.387e-8, -5.729e-5
0.840, 4.936e-8, -5.729e-5
0.835, 6.403e-8, -5.729e-5
0.830, 7.069e-8, -5.728e-5
0.825, 8.295e-8, -5.728e-5
0.820, 9.490e-8, -5.727e-5
0.815, 1.119e-7, -5.727e-5
0.810, 1.175e-7, -5.726e-5
0.805, 1.278e-7, -5.726e-5
0.800, 1.407e-7, -5.725e-5
0.795, 1.564e-7, -5.724e-5
0.790, 1.628e-7, -5.723e-5
0.785, 1.719e-7, -5.722e-5
0.780, 1.814e-7, -5.722e-5
0.775, 1.959e-7, -5.721e-5
0.770, 2.055e-7, -5.720e-5
0.765, 2.148e-7, -5.718e-5
0.760, 2.210e-7, -5.717e-5
0.755, 2.307e-7, -5.716e-5
0.750, 2.456e-7, -5.715e-5
0.745, 2.585e-7, -5.714e-5
0.740, 2.703e-7, -5.712e-5
0.735, 2.814e-7, -5.711e-5
0.730, 2.954e-7, -5.709e-5
0.725, 3.045e-7, -5.708e-5
0.720, 3.114e-7, -5.706e-5
0.715, 3.233e-7, -5.705e-5
0.710, 3.365e-7, -5.703e-5
0.705, 3.528e-7, -5.701e-5
0.700, 3.625e-7, -5.699e-5
0.695, 3.765e-7, -5.698e-5
0.690, 3.917e-7, -5.696e-5
0.685, 4.068e-7, -5.694e-5
0.680, 4.183e-7, -5.691e-5
0.675, 4.385e-7, -5.689e-5
0.670, 4.529e-7, -5.687e-5
0.665, 4.679e-7, -5.685e-5
0.660, 4.872e-7, -5.682e-5
0.655, 5.053e-7, -5.680e-5
0.650, 5.208e-7, -5.677e-5
0.645, 5.461e-7, -5.674e-5
0.640, 5.637e-7, -5.672e-5
0.635, 5.911e-7, -5.669e-5
0.630, 6.082e-7, -5.666e-5
0.625, 6.351e-7, -5.662e-5
0.620, 6.626e-7, -5.659e-5
0.615, 6.909e-7, -5.656e-5
0.610, 7.155e-7, -5.652e-5
0.605, 7.486e-7, -5.648e-5
0.600, 7.816e-7, -5.644e-5
0.595, 8.151e-7, -5.640e-5
0.590, 8.511e-7, -5.636e-5
0.585, 8.907e-7, -5.632e-5
0.580, 9.301e-7, -5.627e-5
0.575, 9.734e-7, -5.622e-5
0.570, 1.016e-6, -5.617e-5
0.565, 1.067e-6, -5.612e-5
0.560, 1.118e-6, -5.606e-5
0.555, 1.173e-6, -5.600e-5
0.550, 1.229e-6, -5.594e-5
0.545, 1.291e-6, -5.588e-5
0.540, 1.355e-6, -5.581e-5
0.535, 1.443e-6, -5.574e-5
0.530, 1.515e-6, -5.566e-5
0.525, 1.590e-6, -5.558e-5
0.520, 1.667e-6, -5.550e-5
0.515, 1.747e-6, -5.541e-5
0.510, 1.830e-6, -5.532e-5
0.505, 1.909e-6, -5.522e-5
0.500, 1.990e-6, -5.512e-5
0.495, 2.070e-6, -5.502e-5
0.490, 2.144e-6, -5.491e-5
0.485, 2.214e-6, -5.480e-5
0.480, 2.266e-6, -5.469e-5
0.475, 2.312e-6, -5.457e-5
0.470, 2.336e-6, -5.446e-5
0.465, 2.343e-6, -5.434e-5
0.460, 2.312e-6, -5.422e-5
0.455, 2.261e-6, -5.411e-5
0.450, 2.163e-6, -5.400e-5
0.445, 2.029e-6, -5.390e-5
0.440, 1.848e-6, -5.381e-5
0.435, 1.633e-6, -5.373e-5
0.430, 1.345e-6, -5.366e-5
0.425, 1.029e-6, -5.361e-5
0.420, 6.790e-7, -5.357e-5
0.415, 2.991e-7, -5.356e-5
0.410, -1.313e-7, -5.357e-5
0.405, -5.497e-7, -5.359e-5
0.400, -9.776e-7, -5.364e-5
0.395, -1.395e-6, -5.371e-5
0.390, -1.819e-6, -5.380e-5
0.385, -2.205e-6, -5.391e-5
0.380, -2.565e-6, -5.404e-5
0.375, -2.888e-6, -5.419e-5
0.370, -3.186e-6, -5.435e-5
0.365, -3.443e-6, -5.452e-5
0.360, -3.666e-6, -5.470e-5
0.355, -3.847e-6, -5.489e-5
0.350, -3.996e-6, -5.509e-5
0.345, -4.099e-6, -5.530e-5
0.340, -4.178e-6, -5.551e-5
0.335, -4.226e-6, -5.572e-5
0.330, -4.250e-6, -5.593e-5
0.325, -4.247e-6, -5.614e-5
0.320, -4.222e-6, -5.635e-5
0.315, -4.164e-6, -5.656e-5
0.310, -4.086e-6, -5.677e-5
0.305, -3.995e-6, -5.697e-5
0.300, -3.878e-6, -5.716e-5
0.295, -3.753e-6, -5.735e-5
0.290, -3.614e-6, -5.753e-5
0.285, -3.459e-6, -5.770e-5
0.280, -3.297e-6, -5.787e-5
0.275, -3.126e-6, -5.802e-5
0.270, -2.955e-6, -5.817e-5
0.265, -2.778e-6, -5.831e-5
0.260, -2.602e-6, -5.844e-5
0.255, -2.422e-6, -5.856e-5
0.250, -2.247e-6, -5.867e-5
0.245, -2.076e-6, -5.878e-5
0.240, -1.917e-6, -5.887e-5
0.235, -1.745e-6, -5.896e-5
0.230, -1.581e-6, -5.904e-5
0.225, -1.433e-6, -5.911e-5
0.220, -1.296e-6, -5.918e-5
0.215, -1.169e-6, -5.923e-5
0.210, -1.050e-6, -5.929e-5
0.205, -9.386e-7, -5.933e-5
0.200, -8.423e-7, -5.938e-5
0.195, -7.454e-7, -5.941e-5
0.190, -6.597e-7, -5.945e-5
0.185, -5.772e-7, -5.947e-5
0.180, -5.063e-7, -5.950e-5
0.175, -4.377e-7, -5.952e-5
0.170, -3.796e-7, -5.954e-5
0.165, -3.272e-7, -5.956e-5
0.160, -2.767e-7, -5.957e-5
0.155, -2.314e-7, -5.958e-5
0.150, -1.897e-7, -5.959e-5
0.145, -1.499e-7, -5.960e-5
0.140, -1.199e-7, -5.961e-5
0.135, -9.262e-8, -5.961e-5
0.130, -5.777e-8, -5.961e-5
0.125, -2.762e-8, -5.961e-5
0.120, -4.911e-9, -5.961e-5
0.115, 1.270e-8, -5.961e-5
0.110, 3.445e-8, -5.961e-5
0.105, 5.021e-8, -5.961e-5
0.100, 6.193e-8, -5.961e-5
0.095, 8.327e-8, -5.960e-5
0.090, 9.268e-8, -5.960e-5
0.085, 1.043e-7, -5.959e-5
0.080, 1.165e-7, -5.959e-5
0.075, 1.336e-7, -5.958e-5
0.070, 1.406e-7, -5.957e-5
0.065, 1.491e-7, -5.957e-5
0.060, 1.552e-7, -5.956e-5
0.055, 1.677e-7, -5.955e-5
0.050, 1.762e-7, -5.954e-5
0.045, 1.874e-7, -5.953e-5
0.040, 1.910e-7, -5.952e-5
0.035, 1.986e-7, -5.951e-5
0.030, 2.045e-7, -5.950e-5
0.025, 2.155e-7, -5.949e-5
0.020, 2.236e-7, -5.948e-5
0.015, 2.339e-7, -5.947e-5
0.010, 2.416e-7, -5.946e-5
0.005, 2.548e-7, -5.944e-5
0.000, 2.652e-7, -5.943e-5
-0.005, 2.763e-7, -5.942e-5
-0.010, 2.908e-7, -5.940e-5
-0.015, 3.116e-7, -5.939e-5
-0.020, 3.273e-7, -5.937e-5
-0.025, 3.546e-7, -5.935e-5
-0.030, 3.718e-7, -5.933e-5
-0.035, 4.020e-7, -5.931e-5
-0.040, 4.282e-7, -5.929e-5
-0.045, 4.667e-7, -5.927e-5
-0.050, 4.950e-7, -5.924e-5
-0.055, 5.317e-7, -5.922e-5
-0.060, 5.681e-7, -5.919e-5
-0.065, 6.102e-7, -5.916e-5
-0.070, 6.470e-7, -5.913e-5
-0.075, 6.965e-7, -5.909e-5
-0.080, 7.370e-7, -5.905e-5
-0.085, 7.897e-7, -5.901e-5
-0.090, 8.337e-7, -5.897e-5
-0.095, 8.804e-7, -5.893e-5
-0.100, 9.311e-7, -5.888e-5
-0.105, 9.826e-7, -5.883e-5
-0.110, 1.029e-6, -5.878e-5
-0.115, 1.078e-6, -5.873e-5
-0.120, 1.119e-6, -5.867e-5
-0.125, 1.164e-6, -5.861e-5
-0.130, 1.207e-6, -5.855e-5
-0.135, 1.253e-6, -5.849e-5
-0.140, 1.299e-6, -5.843e-5
-0.145, 1.349e-6, -5.836e-5
-0.150, 1.391e-6, -5.829e-5
-0.155, 1.442e-6, -5.822e-5
-0.160, 1.481e-6, -5.814e-5
-0.165, 1.530e-6, -5.807e-5
-0.170, 1.570e-6, -5.799e-5
-0.175, 1.609e-6, -5.791e-5
-0.180, 1.647e-6, -5.783e-5
-0.185, 1.690e-6, -5.774e-5
-0.190, 7.690e-8, -5.774e-5

Segment 5:
-0.185, -6.979e-7, -5.777e-5
-0.180, -8.280e-7, -5.781e-5
-0.175, -8.817e-7, -5.786e-5
-0.170, -9.259e-7, -5.790e-5
-0.165, -9.417e-7, -5.795e-5
-0.160, -9.569e-7, -5.800e-5
-0.155, -9.563e-7, -5.805e-5
-0.150, -9.585e-7, -5.809e-5
-0.145, -9.481e-7, -5.814e-5
-0.140, -9.394e-7, -5.819e-5
-0.135, -9.250e-7, -5.823e-5
-0.130, -9.169e-7, -5.828e-5
-0.125, -8.890e-7, -5.833e-5
-0.120, -8.726e-7, -5.837e-5
-0.115, -8.435e-7, -5.841e-5
-0.110, -8.305e-7, -5.845e-5
-0.105, -7.951e-7, -5.849e-5
-0.100, -7.749e-7, -5.853e-5
-0.095, -7.422e-7, -5.857e-5
-0.090, -7.139e-7, -5.860e-5
-0.085, -6.786e-7, -5.864e-5
-0.080, -6.566e-7, -5.867e-5
-0.075, -6.197e-7, -5.870e-5
-0.070, -5.913e-7, -5.873e-5
-0.065, -5.573e-7, -5.876e-5
-0.060, -5.334e-7, -5.879e-5
-0.055, -5.012e-7, -5.881e-5
-0.050, -4.818e-7, -5.883e-5
-0.045, -4.485e-7, -5.886e-5
-0.040, -4.255e-7, -5.888e-5
-0.035, -3.996e-7, -5.890e-5
-0.030, -3.787e-7, -5.892e-5
-0.025, -3.604e-7, -5.894e-5
-0.020, -3.413e-7, -5.895e-5
-0.015, -3.227e-7, -5.897e-5
-0.010, -3.121e-7, -5.898e-5
-0.005, -2.905e-7, -5.900e-5
-0.000, -2.787e-7, -5.901e-5
0.005, -2.668e-7, -5.903e-5
0.010, -2.591e-7, -5.904e-5
0.015, -2.512e-7, -5.905e-5
0.020, -2.492e-7, -5.906e-5
0.025, -2.468e-7, -5.908e-5
0.030, -2.473e-7, -5.909e-5
0.035, -2.467e-7, -5.910e-5
0.040, -2.487e-7, -5.911e-5
0.045, -2.489e-7, -5.913e-5
0.050, -2.535e-7, -5.914e-5
0.055, -2.585e-7, -5.915e-5
0.060, -2.754e-7, -5.917e-5
0.065, -2.866e-7, -5.918e-5
0.070, -2.970e-7, -5.919e-5
0.075, -3.045e-7, -5.921e-5
0.080, -3.284e-7, -5.923e-5
0.085, -3.418e-7, -5.924e-5
0.090, -3.496e-7, -5.926e-5
0.095, -3.703e-7, -5.928e-5
0.100, -3.937e-7, -5.930e-5
0.105, -4.113e-7, -5.932e-5
0.110, -4.408e-7, -5.934e-5
0.115, -4.545e-7, -5.936e-5
0.120, -4.926e-7, -5.939e-5
0.125, -5.166e-7, -5.941e-5
0.130, -5.417e-7, -5.944e-5
0.135, -5.773e-7, -5.947e-5
0.140, -6.093e-7, -5.950e-5
0.145, -6.388e-7, -5.953e-5
0.150, -6.825e-7, -5.957e-5
0.155, -7.212e-7, -5.960e-5
0.160, -7.548e-7, -5.964e-5
0.165, -7.925e-7, -5.968e-5
0.170, -8.382e-7, -5.972e-5
0.175, -8.808e-7, -5.977e-5
0.180, -9.282e-7, -5.981e-5
0.185, -9.729e-7, -5.986e-5
0.190, -1.023e-6, -5.991e-5
0.195, -1.069e-6, -5.997e-5
0.200, -1.124e-6, -6.002e-5
0.205, -1.170e-6, -6.008e-5
0.210, -1.225e-6, -6.014e-5
0.215, -1.274e-6, -6.021e-5
0.220, -1.332e-6, -6.027e-5
0.225, -1.386e-6, -6.034e-5
0.230, -1.444e-6, -6.041e-5
0.235, -1.504e-6, -6.049e-5
0.240, -1.560e-6, -6.057e-5
0.245, -1.614e-6, -6.065e-5
0.250, -1.680e-6, -6.073e-5
0.255, -1.750e-6, -6.082e-5
0.260, -1.812e-6, -6.091e-5
0.265, -1.871e-6, -6.100e-5
0.270, -1.931e-6, -6.110e-5
0.275, -1.996e-6, -6.120e-5
0.280, -2.069e-6, -6.130e-5
0.285, -2.133e-6, -6.141e-5
0.290, -2.207e-6, -6.152e-5
0.295, -2.279e-6, -6.163e-5
0.300, -2.356e-6, -6.175e-5
0.305, -2.429e-6, -6.187e-5
0.310, -2.507e-6, -6.200e-5
0.315, -2.585e-6, -6.213e-5
0.320, -2.669e-6, -6.226e-5
0.325, -2.750e-6, -6.240e-5
0.330, -2.843e-6, -6.254e-5
0.335, -2.938e-6, -6.269e-5
0.340, -3.044e-6, -6.284e-5
0.345, -3.145e-6, -6.300e-5
0.350, -3.266e-6, -6.316e-5
0.355, -3.387e-6, -6.333e-5
0.360, -3.520e-6, -6.351e-5
0.365, -3.663e-6, -6.369e-5
0.370, -3.814e-6, -6.388e-5
0.375, -3.974e-6, -6.408e-5
0.380, -4.150e-6, -6.429e-5
0.385, -4.331e-6, -6.450e-5
0.390, -4.522e-6, -6.473e-5
0.395, -4.722e-6, -6.496e-5
0.400, -4.950e-6, -6.521e-5
0.405, -5.175e-6, -6.547e-5
0.410, -5.396e-6, -6.574e-5
0.415, -5.634e-6, -6.602e-5
0.420, -5.878e-6, -6.632e-5
0.425, -6.118e-6, -6.662e-5
0.430, -6.373e-6, -6.694e-5
0.435, -6.613e-6, -6.727e-5
0.440, -6.848e-6, -6.761e-5
0.445, -7.069e-6, -6.797e-5
0.450, -7.288e-6, -6.833e-5
0.455, -7.496e-6, -6.871e-5
0.460, -7.706e-6, -6.909e-5
0.465, -7.914e-6, -6.949e-5
0.470, -8.121e-6, -6.989e-5
0.475, -8.298e-6, -7.031e-5
0.480, -8.434e-6, -7.073e-5
0.485, -8.514e-6, -7.116e-5
0.490, -8.534e-6, -7.158e-5
0.495, -8.500e-6, -7.201e-5
0.500, -8.432e-6, -7.243e-5
0.505, -8.330e-6, -7.285e-5
0.510, -8.206e-6, -7.326e-5
0.515, -8.056e-6, -7.366e-5
0.520, -7.868e-6, -7.405e-5
0.525, -7.666e-6, -7.444e-5
0.530, -7.451e-6, -7.481e-5
0.535, -7.212e-6, -7.517e-5
0.540, -6.968e-6, -7.552e-5
0.545, -6.716e-6, -7.585e-5
0.550, -6.468e-6, -7.618e-5
0.555, -6.210e-6, -7.649e-5
0.560, -5.980e-6, -7.679e-5
0.565, -5.747e-6, -7.707e-5
0.570, -5.529e-6, -7.735e-5
0.575, -5.317e-6, -7.762e-5
0.580, -5.118e-6, -7.787e-5
0.585, -4.928e-6, -7.812e-5
0.590, -4.732e-6, -7.835e-5
0.595, -4.561e-6, -7.858e-5
0.600, -4.398e-6, -7.880e-5
0.605, -4.239e-6, -7.901e-5
0.610, -4.093e-6, -7.922e-5
0.615, -3.948e-6, -7.942e-5
0.620, -3.819e-6, -7.961e-5
0.625, -3.685e-6, -7.979e-5
0.630, -3.566e-6, -7.997e-5
0.635, -3.451e-6, -8.014e-5
0.640, -3.342e-6, -8.031e-5
0.645, -3.237e-6, -8.047e-5
0.650, -3.136e-6, -8.063e-5
0.655, -3.037e-6, -8.078e-5
0.660, -2.950e-6, -8.093e-5
0.665, -2.864e-6, -8.107e-5
0.670, -2.784e-6, -8.121e-5
0.675, -2.706e-6, -8.135e-5
0.680, -2.637e-6, -8.148e-5
0.685, -2.567e-6, -8.161e-5
0.690, -2.510e-6, -8.173e-5
0.695, -2.451e-6, -8.185e-5
0.700, -2.394e-6, -8.197e-5
0.705, -2.341e-6, -8.209e-5
0.710, -2.299e-6, -8.221e-5
0.715, -2.258e-6, -8.232e-5
0.720, -2.220e-6, -8.243e-5
0.725, -2.180e-6, -8.254e-5
0.730, -2.147e-6, -8.265e-5
0.735, -2.116e-6, -8.275e-5
0.740, -2.094e-6, -8.286e-5
0.745, -2.073e-6, -8.296e-5
0.750, -2.049e-6, -8.306e-5
0.755, -2.030e-6, -8.316e-5
0.760, -2.020e-6, -8.326e-5
0.765, -2.001e-6, -8.336e-5
0.770, -1.992e-6, -8.346e-5
0.775, -1.984e-6, -8.356e-5
0.780, -1.981e-6, -8.366e-5
0.785, -1.978e-6, -8.376e-5
0.790, -1.979e-6, -8.386e-5
0.795, -1.979e-6, -8.396e-5
0.800, -1.983e-6, -8.406e-5
0.805, -1.986e-6, -8.416e-5
0.810, -1.996e-6, -8.426e-5
0.815, -2.008e-6, -8.436e-5
0.820, -2.020e-6, -8.446e-5
0.825, -2.033e-6, -8.456e-5
0.830, -2.054e-6, -8.466e-5
0.835, -2.070e-6, -8.477e-5
0.840, -2.089e-6, -8.487e-5
0.845, -2.118e-6, -8.498e-5
0.850, -2.141e-6, -8.508e-5
0.855, -2.168e-6, -8.519e-5
0.860, -2.197e-6, -8.530e-5
0.865, -2.228e-6, -8.541e-5
0.870, -2.266e-6, -8.553e-5
0.875, -2.299e-6, -8.564e-5
0.880, -2.341e-6, -8.576e-5
0.885, -2.382e-6, -8.588e-5
0.890, -2.432e-6, -8.600e-5
0.895, -2.478e-6, -8.612e-5
0.900, -2.529e-6, -8.625e-5
0.905, -2.579e-6, -8.638e-5
0.910, -2.637e-6, -8.651e-5
0.915, -2.691e-6, -8.665e-5
0.920, -2.751e-6, -8.678e-5
0.925, -2.807e-6, -8.692e-5
0.930, -2.871e-6, -8.707e-5
0.935, -2.930e-6, -8.721e-5
0.940, -2.994e-6, -8.736e-5
0.945, -3.057e-6, -8.752e-5
0.950, -3.126e-6, -8.767e-5
0.955, -3.188e-6, -8.783e-5
0.960, -3.251e-6, -8.799e-5
0.965, -3.319e-6, -8.816e-5
0.970, -3.384e-6, -8.833e-5
0.975, -3.449e-6, -8.850e-5
0.980, -3.519e-6, -8.868e-5
0.985, -3.586e-6, -8.886e-5
0.990, -3.659e-6, -8.904e-5
0.995, -3.729e-6, -8.923e-5
1.000, -3.801e-6, -8.942e-5
1.005, -3.867e-6, -8.961e-5
1.010, -3.937e-6, -8.981e-5
1.015, -3.997e-6, -9.001e-5
1.020, -4.061e-6, -9.021e-5
1.025, -4.122e-6, -9.042e-5
1.030, -4.187e-6, -9.063e-5
1.035, -4.244e-6, -9.084e-5
1.040, -4.302e-6, -9.105e-5
1.045, -4.355e-6, -9.127e-5
1.050, -4.408e-6, -9.149e-5
1.055, -4.455e-6, -9.171e-5
1.060, -4.495e-6, -9.194e-5
1.065, -4.532e-6, -9.216e-5
1.070, -4.569e-6, -9.239e-5
1.075, -4.602e-6, -9.262e-5
1.080, -4.639e-6, -9.286e-5
1.085, -4.676e-6, -9.309e-5
1.090, -4.718e-6, -9.332e-5
1.095, -4.748e-6, -9.356e-5
1.100, -4.784e-6, -9.380e-5
1.105, -4.818e-6, -9.404e-5
1.110, -4.861e-6, -9.429e-5
1.115, -4.885e-6, -9.453e-5
1.120, -4.911e-6, -9.478e-5
1.125, -4.926e-6, -9.502e-5
1.130, -4.950e-6, -9.527e-5
1.135, -4.968e-6, -9.552e-5
1.140, -4.993e-6, -9.577e-5
1.145, -5.013e-6, -9.602e-5
1.150, -4.678e-6, -9.625e-5

Segment 6:
1.145, -4.113e-6, -9.646e-5
1.140, -3.698e-6, -9.664e-5
1.135, -3.358e-6, -9.681e-5
1.130, -3.078e-6, -9.696e-5
1.125, -2.835e-6, -9.711e-5
1.120, -2.643e-6, -9.724e-5
1.115, -2.461e-6, -9.736e-5
1.110, -2.306e-6, -9.748e-5
1.105, -2.167e-6, -9.758e-5
1.100, -2.039e-6, -9.769e-5
1.095, -1.922e-6, -9.778e-5
1.090, -1.814e-6, -9.787e-5
1.085, -1.706e-6, -9.796e-5
1.080, -1.609e-6, -9.804e-5
1.075, -1.522e-6, -9.812e-5
1.070, -1.440e-6, -9.819e-5
1.065, -1.359e-6, -9.826e-5
1.060, -1.285e-6, -9.832e-5
1.055, -1.214e-6, -9.838e-5
1.050, -1.150e-6, -9.844e-5
1.045, -1.088e-6, -9.849e-5
1.040, -1.031e-6, -9.854e-5
1.035, -9.745e-7, -9.859e-5
1.030, -9.278e-7, -9.864e-5
1.025, -8.754e-7, -9.868e-5
1.020, -8.335e-7, -9.872e-5
1.015, -7.878e-7, -9.876e-5
1.010, -7.486e-7, -9.880e-5
1.005, -7.053e-7, -9.884e-5
1.000, -6.669e-7, -9.887e-5
0.995, -6.306e-7, -9.890e-5
0.990, -5.964e-7, -9.893e-5
0.985, -5.554e-7, -9.896e-5
0.980, -5.291e-7, -9.899e-5
0.975, -4.967e-7, -9.901e-5
0.970, -4.640e-7, -9.903e-5
0.965, -4.356e-7, -9.905e-5
0.960, -4.100e-7, -9.908e-5
0.955, -3.781e-7, -9.909e-5
0.950, -3.565e-7, -9.911e-5
0.945, -3.294e-7, -9.913e-5
0.940, -3.092e-7, -9.914e-5
0.935, -2.791e-7, -9.916e-5
0.930, -2.601e-7, -9.917e-5
0.925, -2.351e-7, -9.918e-5
0.920, -2.166e-7, -9.919e-5
0.915, -1.929e-7, -9.920e-5
0.910, -1.742e-7, -9.921e-5
0.905, -1.547e-7, -9.922e-5
0.900, -1.403e-7, -9.923e-5
0.895, -1.230e-7, -9.923e-5
0.890, -1.040e-7, -9.924e-5
0.885, -8.376e-8, -9.924e-5
0.880, -6.848e-8, -9.925e-5
0.875, -4.486e-8, -9.925e-5
0.870, -3.063e-8, -9.925e-5
0.865, -1.290e-8, -9.925e-5
0.860, -2.135e-9, -9.925e-5
0.855, 1.570e-8, -9.925e-5
0.850, 2.628e-8, -9.925e-5
0.845, 4.250e-8, -9.925e-5
0.840, 5.211e-8, -9.924e-5
0.835, 6.751e-8, -9.924e-5
0.830, 7.658e-8, -9.924e-5
0.825, 9.184e-8, -9.923e-5
0.820, 9.889e-8, -9.923e-5
0.815, 1.159e-7, -9.922e-5
0.810, 1.237e-7, -9.921e-5
0.805, 1.369e-7, -9.921e-5
0.800, 1.455e-7, -9.920e-5
0.795, 1.606e-7, -9.919e-5
0.790, 1.686e-7, -9.918e-5
0.785, 1.797e-7, -9.918e-5
0.780, 1.868e-7, -9.917e-5
0.775, 2.022e-7, -9.916e-5
0.770, 2.107e-7, -9.915e-5
0.765, 2.212e-7, -9.913e-5
0.760, 2.286e-7, -9.912e-5
0.755, 2.414e-7, -9.911e-5
0.750, 2.536e-7, -9.910e-5
0.745, 2.663e-7, -9.908e-5
0.740, 2.749e-7, -9.907e-5
0.735, 2.875e-7, -9.906e-5
0.730, 2.982e-7, -9.904e-5
0.725, 3.095e-7, -9.903e-5
0.720, 3.185e-7, -9.901e-5
0.715, 3.317e-7, -9.899e-5
0.710, 3.420e-7, -9.898e-5
0.705, 3.587e-7, -9.896e-5
0.700, 3.682e-7, -9.894e-5
0.695, 3.843e-7, -9.892e-5
0.690, 3.982e-7, -9.890e-5
0.685, 4.132e-7, -9.888e-5
0.680, 4.239e-7, -9.886e-5
0.675, 4.451e-7, -9.884e-5
0.670, 4.600e-7, -9.881e-5
0.665, 4.763e-7, -9.879e-5
0.660, 4.943e-7, -9.877e-5
0.655, 5.127e-7, -9.874e-5
0.650, 5.287e-7, -9.871e-5
0.645, 5.546e-7, -9.869e-5
0.640, 5.713e-7, -9.866e-5
0.635, 5.991e-7, -9.863e-5
0.630, 6.169e-7, -9.860e-5
0.625, 6.443e-7, -9.856e-5
0.620, 6.705e-7, -9.853e-5
0.615, 7.024e-7, -9.850e-5
0.610, 7.264e-7, -9.846e-5
0.605, 7.615e-7, -9.842e-5
0.600, 7.931e-7, -9.838e-5
0.595, 8.288e-7, -9.834e-5
0.590, 8.628e-7, -9.830e-5
0.585, 9.059e-7, -9.825e-5
0.580, 9.448e-7, -9.820e-5
0.575, 9.909e-7, -9.815e-5
0.570, 1.034e-6, -9.810e-5
0.565, 1.087e-6, -9.805e-5
0.560, 1.136e-6, -9.799e-5
0.555, 1.198e-6, -9.793e-5
0.550, 1.251e-6, -9.787e-5
0.545, 1.315e-6, -9.780e-5
0.540, 1.389e-6, -9.773e-5
0.535, 1.474e-6, -9.766e-5
0.530, 1.546e-6, -9.758e-5
0.525, 1.628e-6, -9.750e-5
0.520, 1.705e-6, -9.742e-5
0.515, 1.792e-6, -9.733e-5
0.510, 1.874e-6, -9.723e-5
0.505, 1.959e-6, -9.714e-5
0.500, 2.042e-6, -9.703e-5
0.495, 2.125e-6, -9.693e-5
0.490, 2.198e-6, -9.682e-5
0.485, 2.275e-6, -9.670e-5
0.480, 2.329e-6, -9.659e-5
0.475, 2.376e-6, -9.647e-5
0.470, 2.399e-6, -9.635e-5
0.465, 2.402e-6, -9.623e-5
0.460, 2.360e-6, -9.611e-5
0.455, 2.298e-6, -9.599e-5
0.450, 2.190e-6, -9.589e-5
0.445, 2.042e-6, -9.578e-5
0.440, 1.842e-6, -9.569e-5
0.435, 1.595e-6, -9.561e-5
0.430, 1.278e-6, -9.555e-5
0.425, 9.298e-7, -9.550e-5
0.420, 5.479e-7, -9.547e-5
0.415, 1.256e-7, -9.547e-5
0.410, -3.436e-7, -9.548e-5
0.405, -8.009e-7, -9.552e-5
0.400, -1.266e-6, -9.559e-5
0.395, -1.729e-6, -9.567e-5
0.390, -2.175e-6, -9.578e-5
0.385, -2.590e-6, -9.591e-5
0.380, -2.973e-6, -9.606e-5
0.375, -3.326e-6, -9.623e-5
0.370, -3.641e-6, -9.641e-5
0.365, -3.909e-6, -9.661e-5
0.360, -4.141e-6, -9.681e-5
0.355, -4.327e-6, -9.703e-5
0.350, -4.474e-6, -9.725e-5
0.345, -4.588e-6, -9.748e-5
0.340, -4.662e-6, -9.771e-5
0.335, -4.708e-6, -9.795e-5
0.330, -4.717e-6, -9.819e-5
0.325, -4.702e-6, -9.842e-5
0.320, -4.660e-6, -9.865e-5
0.315, -4.592e-6, -9.888e-5
0.310, -4.500e-6, -9.911e-5
0.305, -4.384e-6, -9.933e-5
0.300, -4.258e-6, -9.954e-5
0.295, -4.112e-6, -9.975e-5
0.290, -3.950e-6, -9.994e-5
0.285, -3.776e-6, -1.001e-4
0.280, -3.592e-6, -1.003e-4
0.275, -3.406e-6, -1.005e-4
0.270, -3.210e-6, -1.006e-4
0.265, -3.016e-6, -1.008e-4
0.260, -2.823e-6, -1.009e-4
0.255, -2.633e-6, -1.011e-4
0.250, -2.444e-6, -1.012e-4
0.245, -2.256e-6, -1.013e-4
0.240, -2.085e-6, -1.014e-4
0.235, -1.912e-6, -1.015e-4
0.230, -1.750e-6, -1.016e-4
0.225, -1.585e-6, -1.017e-4
0.220, -1.437e-6, -1.017e-4
0.215, -1.297e-6, -1.018e-4
0.210, -1.169e-6, -1.019e-4
0.205, -1.046e-6, -1.019e-4
0.200, -9.340e-7, -1.020e-4
0.195, -8.294e-7, -1.020e-4
0.190, -7.387e-7, -1.020e-4
0.185, -6.510e-7, -1.021e-4
0.180, -5.730e-7, -1.021e-4
0.175, -5.030e-7, -1.021e-4
0.170, -4.387e-7, -1.021e-4
0.165, -3.740e-7, -1.022e-4
0.160, -3.225e-7, -1.022e-4
0.155, -2.661e-7, -1.022e-4
0.150, -2.228e-7, -1.022e-4
0.145, -1.755e-7, -1.022e-4
0.140, -1.470e-7, -1.022e-4
0.135, -1.075e-7, -1.022e-4
0.130, -7.584e-8, -1.022e-4
0.125, -4.269e-8, -1.022e-4
0.120, -2.014e-8, -1.022e-4
0.115, 3.037e-9, -1.022e-4
0.110, 2.211e-8, -1.022e-4
0.105, 4.122e-8, -1.022e-4
0.100, 5.686e-8, -1.022e-4
0.095, 7.321e-8, -1.022e-4
0.090, 8.074e-8, -1.022e-4
0.085, 9.623e-8, -1.022e-4
0.080, 1.084e-7, -1.022e-4
0.075, 1.201e-7, -1.022e-4
0.070, 1.250e-7, -1.022e-4
0.065, 1.359e-7, -1.022e-4
0.060, 1.431e-7, -1.022e-4
0.055, 1.533e-7, -1.022e-4
0.050, 1.622e-7, -1.022e-4
0.045, 1.727e-7, -1.022e-4
0.040, 1.768e-7, -1.022e-4
0.035, 1.871e-7, -1.021e-4
0.030, 1.939e-7, -1.021e-4
0.025, 2.034e-7, -1.021e-4
0.020, 2.103e-7, -1.021e-4
0.015, 2.197e-7, -1.021e-4
0.010, 2.249e-7, -1.021e-4
0.005, 2.398e-7, -1.021e-4
0.000, 2.548e-7, -1.021e-4
-0.005, 2.727e-7, -1.021e-4
-0.010, 2.921e-7, -1.020e-4
-0.015, 3.101e-7, -1.020e-4
-0.020, 3.241e-7, -1.020e-4
-0.025, 3.520e-7, -1.020e-4
-0.030, 3.709e-7, -1.020e-4
-0.035, 4.000e-7, -1.020e-4
-0.040, 4.305e-7, -1.019e-4
-0.045, 4.646e-7, -1.019e-4
-0.050, 4.917e-7, -1.019e-4
-0.055, 5.286e-7, -1.019e-4
-0.060, 5.641e-7, -1.018e-4
-0.065, 5.958e-7, -1.018e-4
-0.070, 6.385e-7, -1.018e-4
-0.075, 6.871e-7, -1.017e-4
-0.080, 7.321e-7, -1.017e-4
-0.085, 7.766e-7, -1.017e-4
-0.090, 8.148e-7, -1.016e-4
-0.095, 8.653e-7, -1.016e-4
-0.100, 9.144e-7, -1.015e-4
-0.105, 9.615e-7, -1.015e-4
-0.110, 1.016e-6, -1.014e-4
-0.115, 1.060e-6, -1.014e-4
-0.120, 1.107e-6, -1.013e-4
-0.125, 1.153e-6, -1.013e-4
-0.130, 1.197e-6, -1.012e-4
-0.135, 1.236e-6, -1.011e-4
-0.140, 1.286e-6, -1.011e-4
-0.145, 1.337e-6, -1.010e-4
-0.150, 1.382e-6, -1.009e-4
-0.155, 1.428e-6, -1.009e-4
-0.160, 1.474e-6, -1.008e-4
-0.165, 1.509e-6, -1.007e-4
-0.170, 1.544e-6, -1.006e-4
-0.175, 1.587e-6, -1.006e-4
-0.180, 1.614e-6, -1.005e-4
-0.185, 1.650e-6, -1.004e-4
-0.190, 2.899e-8, -1.004e-4

Segment 7:
-0.185, -7.363e-7, -1.004e-4
-0.180, -8.548e-7, -1.005e-4
-0.175, -9.138e-7, -1.005e-4
-0.170, -9.447e-7, -1.006e-4
-0.165, -9.695e-7, -1.006e-4
-0.160, -9.785e-7, -1.007e-4
-0.155, -9.762e-7, -1.007e-4
-0.150, -9.731e-7, -1.008e-4
-0.145, -9.677e-7, -1.008e-4
-0.140, -9.538e-7, -1.009e-4
-0.135, -9.332e-7, -1.009e-4
-0.130, -9.195e-7, -1.010e-4
-0.125, -8.938e-7, -1.010e-4
-0.120, -8.661e-7, -1.010e-4
-0.115, -8.377e-7, -1.011e-4
-0.110, -8.164e-7, -1.011e-4
-0.105, -7.866e-7, -1.012e-4
-0.100, -7.608e-7, -1.012e-4
-0.095, -7.274e-7, -1.012e-4
-0.090, -6.963e-7, -1.013e-4
-0.085, -6.629e-7, -1.013e-4
-0.080, -6.369e-7, -1.013e-4
-0.075, -6.062e-7, -1.014e-4
-0.070, -5.748e-7, -1.014e-4
-0.065, -5.425e-7, -1.014e-4
-0.060, -5.125e-7, -1.014e-4
-0.055, -4.825e-7, -1.015e-4
-0.050, -4.549e-7, -1.015e-4
-0.045, -4.284e-7, -1.015e-4
-0.040, -4.076e-7, -1.015e-4
-0.035, -3.872e-7, -1.016e-4
-0.030, -3.678e-7, -1.016e-4
-0.025, -3.453e-7, -1.016e-4
-0.020, -3.301e-7, -1.016e-4
-0.015, -3.089e-7, -1.016e-4
-0.010, -2.975e-7, -1.016e-4
-0.005, -2.813e-7, -1.017e-4
-0.000, -2.701e-7, -1.017e-4
0.005, -2.604e-7, -1.017e-4
0.010, -2.534e-7, -1.017e-4
0.015, -2.427e-7, -1.017e-4
0.020, -2.391e-7, -1.017e-4
0.025, -2.353e-7, -1.017e-4
0.030, -2.354e-7, -1.017e-4
0.035, -2.336e-7, -1.018e-4
0.040, -2.386e-7, -1.018e-4
0.045, -2.408e-7, -1.018e-4
0.050, -2.491e-7, -1.018e-4
0.055, -2.552e-7, -1.018e-4
0.060, -2.645e-7, -1.018e-4
0.065, -2.703e-7, -1.018e-4
0.070, -2.822e-7, -1.018e-4
0.075, -2.935e-7, -1.019e-4
0.080, -3.132e-7, -1.019e-4
0.085, -3.232e-7, -1.019e-4
0.090, -3.395e-7, -1.019e-4
0.095, -3.573e-7, -1.019e-4
0.100, -3.748e-7, -1.019e-4
0.105, -3.938e-7, -1.020e-4
0.110, -4.204e-7, -1.020e-4
0.115, -4.373e-7, -1.020e-4
0.120, -4.659e-7, -1.020e-4
0.125, -4.863e-7, -1.021e-4
0.130, -5.219e-7, -1.021e-4
0.135, -5.523e-7, -1.021e-4
0.140, -5.803e-7, -1.021e-4
0.145, -6.137e-7, -1.022e-4
0.150, -6.482e-7, -1.022e-4
0.155, -6.831e-7, -1.022e-4
0.160, -7.264e-7, -1.023e-4
0.165, -7.626e-7, -1.023e-4
0.170, -8.092e-7, -1.023e-4
0.175, -8.513e-7, -1.024e-4
0.180, -8.975e-7, -1.024e-4
0.185, -9.470e-7, -1.025e-4
0.190, -9.943e-7, -1.025e-4
0.195, -1.044e-6, -1.026e-4
0.200, -1.102e-6, -1.026e-4
0.205, -1.151e-6, -1.027e-4
0.210, -1.208e-6, -1.028e-4
0.215, -1.258e-6, -1.028e-4
0.220, -1.322e-6, -1.029e-4
0.225, -1.377e-6, -1.030e-4
0.230, -1.441e-6, -1.030e-4
0.235, -1.503e-6, -1.031e-4
0.240, -1.567e-6, -1.032e-4
0.245, -1.629e-6, -1.033e-4
0.250, -1.705e-6, -1.033e-4
0.255, -1.779e-6, -1.034e-4
0.260, -1.851e-6, -1.035e-4
0.265, -1.918e-6, -1.036e-4
0.270, -1.993e-6, -1.037e-4
0.275, -2.062e-6, -1.038e-4
0.280, -2.139e-6, -1.039e-4
0.285, -2.211e-6, -1.040e-4
0.290, -2.288e-6, -1.042e-4
0.295, -2.358e-6, -1.043e-4
0.300, -2.435e-6, -1.044e-4
0.305, -2.518e-6, -1.045e-4
0.310, -2.597e-6, -1.047e-4
0.315, -2.678e-6, -1.048e-4
0.320, -2.761e-6, -1.049e-4
0.325, -2.843e-6, -1.051e-4
0.330, -2.944e-6, -1.052e-4
0.335, -3.033e-6, -1.054e-4
0.340, -3.144e-6, -1.055e-4
0.345, -3.246e-6, -1.057e-4
0.350, -3.366e-6, -1.059e-4
0.355, -3.491e-6, -1.060e-4
0.360, -3.626e-6, -1.062e-4
0.365, -3.763e-6, -1.064e-4
0.370, -3.914e-6, -1.066e-4
0.375, -4.075e-6, -1.068e-4
0.380, -4.251e-6, -1.070e-4
0.385, -4.431e-6, -1.072e-4
0.390, -4.628e-6, -1.075e-4
0.395, -4.834e-6, -1.077e-4
0.400, -5.060e-6, -1.080e-4
0.405, -5.288e-6, -1.082e-4
0.410, -5.516e-6, -1.085e-4
0.415, -5.756e-6, -1.088e-4
0.420, -6.005e-6, -1.091e-4
0.425, -6.248e-6, -1.094e-4
0.430, -6.500e-6, -1.097e-4
0.435, -6.742e-6, -1.101e-4
0.440, -6.973e-6, -1.104e-4
0.445, -7.191e-6, -1.108e-4
0.450, -7.414e-6, -1.111e-4
0.455, -7.625e-6, -1.115e-4
0.460, -7.838e-6, -1.119e-4
0.465, -8.068e-6, -1.123e-4
0.470, -8.287e-6, -1.127e-4
0.475, -8.478e-6, -1.132e-4
0.480, -8.628e-6, -1.136e-4
0.485, -8.720e-6, -1.140e-4
0.490, -8.739e-6, -1.145e-4
0.495, -8.688e-6, -1.149e-4
0.500, -8.605e-6, -1.153e-4
0.505, -8.490e-6, -1.157e-4
0.510, -8.345e-6, -1.162e-4
0.515, -8.179e-6, -1.166e-4
0.520, -7.977e-6, -1.170e-4
0.525, -7.751e-6, -1.174e-4
0.530, -7.515e-6, -1.177e-4
0.535, -7.266e-6, -1.181e-4
0.540, -7.007e-6, -1.185e-4
0.545, -6.743e-6, -1.188e-4
0.550, -6.486e-6, -1.191e-4
0.555, -6.220e-6, -1.194e-4
0.560, -5.975e-6, -1.197e-4
0.565, -5.740e-6, -1.200e-4
0.570, -5.517e-6, -1.203e-4
0.575, -5.303e-6, -1.205e-4
0.580, -5.102e-6, -1.208e-4
0.585, -4.910e-6, -1.211e-4
0.590, -4.714e-6, -1.213e-4
0.595, -4.541e-6, -1.215e-4
0.600, -4.376e-6, -1.217e-4
0.605, -4.224e-6, -1.219e-4
0.610, -4.078e-6, -1.221e-4
0.615, -3.935e-6, -1.223e-4
0.620, -3.801e-6, -1.225e-4
0.625, -3.671e-6, -1.227e-4
0.630, -3.547e-6, -1.229e-4
0.635, -3.427e-6, -1.231e-4
0.640, -3.317e-6, -1.232e-4
0.645, -3.201e-6, -1.234e-4
0.650, -3.100e-6, -1.235e-4
0.655, -2.996e-6, -1.237e-4
0.660, -2.906e-6, -1.238e-4
0.665, -2.811e-6, -1.240e-4
0.670, -2.731e-6, -1.241e-4
0.675, -2.651e-6, -1.243e-4
0.680, -2.577e-6, -1.244e-4
0.685, -2.512e-6, -1.245e-4
0.690, -2.443e-6, -1.246e-4
0.695, -2.386e-6, -1.247e-4
0.700, -2.332e-6, -1.249e-4
0.705, -2.279e-6, -1.250e-4
0.710, -2.237e-6, -1.251e-4
0.715, -2.192e-6, -1.252e-4
0.720, -2.154e-6, -1.253e-4
0.725, -2.122e-6, -1.254e-4
0.730, -2.088e-6, -1.255e-4
0.735, -2.051e-6, -1.256e-4
0.740, -2.029e-6, -1.257e-4
0.745, -2.007e-6, -1.258e-4
0.750, -1.984e-6, -1.259e-4
0.755, -1.965e-6, -1.260e-4
0.760, -1.949e-6, -1.261e-4
0.765, -1.934e-6, -1.262e-4
0.770, -1.927e-6, -1.263e-4
0.775, -1.914e-6, -1.264e-4
0.780, -1.910e-6, -1.265e-4
0.785, -1.902e-6, -1.266e-4
0.790, -1.901e-6, -1.267e-4
0.795, -1.899e-6, -1.268e-4
0.800, -1.902e-6, -1.269e-4
0.805, -1.904e-6, -1.270e-4
0.810, -1.914e-6, -1.271e-4
0.815, -1.924e-6, -1.272e-4
0.820, -1.929e-6, -1.273e-4
0.825, -1.941e-6, -1.274e-4
0.830, -1.963e-6, -1.275e-4
0.835, -1.981e-6, -1.276e-4
0.840, -2.005e-6, -1.277e-4
0.845, -2.029e-6, -1.278e-4
0.850, -2.051e-6, -1.279e-4
0.855, -2.090e-6, -1.280e-4
0.860, -2.122e-6, -1.281e-4
0.865, -2.151e-6, -1.282e-4
0.870, -2.190e-6, -1.283e-4
0.875, -2.231e-6, -1.284e-4
0.880, -2.274e-6, -1.285e-4
0.885, -2.317e-6, -1.286e-4
0.890, -2.365e-6, -1.288e-4
0.895, -2.414e-6, -1.289e-4
0.900, -2.467e-6, -1.290e-4
0.905, -2.522e-6, -1.291e-4
0.910, -2.576e-6, -1.292e-4
0.915, -2.634e-6, -1.294e-4
0.920, -2.697e-6, -1.295e-4
0.925, -2.758e-6, -1.297e-4
0.930, -2.821e-6, -1.298e-4
0.935, -2.887e-6, -1.299e-4
0.940, -2.947e-6, -1.301e-4
0.945, -3.011e-6, -1.302e-4
0.950, -3.078e-6, -1.304e-4
0.955, -3.143e-6, -1.305e-4
0.960, -3.209e-6, -1.307e-4
0.965, -3.287e-6, -1.309e-4
0.970, -3.354e-6, -1.310e-4
0.975, -3.421e-6, -1.312e-4
0.980, -3.495e-6, -1.314e-4
0.985, -3.564e-6, -1.316e-4
0.990, -3.640e-6, -1.317e-4
0.995, -3.712e-6, -1.319e-4
1.000, -3.789e-6, -1.321e-4
1.005, -3.860e-6, -1.323e-4
1.010, -3.935e-6, -1.325e-4
1.015, -3.999e-6, -1.327e-4
1.020, -4.068e-6, -1.329e-4
1.025, -4.127e-6, -1.331e-4
1.030, -4.187e-6, -1.333e-4
1.035, -4.237e-6, -1.335e-4
1.040, -4.288e-6, -1.338e-4
1.045, -4.336e-6, -1.340e-4
1.050, -4.386e-6, -1.342e-4
1.055, -4.440e-6, -1.344e-4
1.060, -4.488e-6, -1.346e-4
1.065, -4.536e-6, -1.349e-4
1.070, -4.588e-6, -1.351e-4
1.075, -4.630e-6, -1.353e-4
1.080, -4.677e-6, -1.356e-4
1.085, -4.719e-6, -1.358e-4
1.090, -4.762e-6, -1.360e-4
1.095, -4.796e-6, -1.363e-4
1.100, -4.843e-6, -1.365e-4
1.105, -4.883e-6, -1.368e-4
1.110, -4.923e-6, -1.370e-4
1.115, -4.957e-6, -1.373e-4
1.120, -4.988e-6, -1.375e-4
1.125, -5.011e-6, -1.378e-4
1.130, -5.037e-6, -1.380e-4
1.135, -5.056e-6, -1.383e-4
1.140, -5.075e-6, -1.385e-4
1.145, -5.101e-6, -1.388e-4
1.150, -4.765e-6, -1.390e-4

Segment 8:
1.145, -4.194e-6, -1.392e-4
1.140, -3.776e-6, -1.394e-4
1.135, -3.434e-6, -1.396e-4
1.130, -3.149e-6, -1.397e-4
1.125, -2.916e-6, -1.399e-4
1.120, -2.707e-6, -1.400e-4
1.115, -2.528e-6, -1.401e-4
1.110, -2.370e-6, -1.403e-4
1.105, -2.229e-6, -1.404e-4
1.100, -2.098e-6, -1.405e-4
1.095, -1.977e-6, -1.406e-4
1.090, -1.867e-6, -1.407e-4
1.085, -1.760e-6, -1.408e-4
1.080, -1.652e-6, -1.408e-4
1.075, -1.558e-6, -1.409e-4
1.070, -1.474e-6, -1.410e-4
1.065, -1.390e-6, -1.411e-4
1.060, -1.320e-6, -1.411e-4
1.055, -1.243e-6, -1.412e-4
1.050, -1.182e-6, -1.412e-4
1.045, -1.121e-6, -1.413e-4
1.040, -1.062e-6, -1.414e-4
1.035, -1.004e-6, -1.414e-4
1.030, -9.555e-7, -1.415e-4
1.025, -9.044e-7, -1.415e-4
1.020, -8.557e-7, -1.415e-4
1.015, -8.097e-7, -1.416e-4
1.010, -7.674e-7, -1.416e-4
1.005, -7.274e-7, -1.417e-4
1.000, -6.902e-7, -1.417e-4
0.995, -6.478e-7, -1.417e-4
0.990, -6.130e-7, -1.418e-4
0.985, -5.745e-7, -1.418e-4
0.980, -5.491e-7, -1.418e-4
0.975, -5.130e-7, -1.418e-4
0.970, -4.747e-7, -1.419e-4
0.965, -4.504e-7, -1.419e-4
0.960, -4.212e-7, -1.419e-4
0.955, -3.922e-7, -1.419e-4
0.950, -3.674e-7, -1.419e-4
0.945, -3.404e-7, -1.420e-4
0.940, -3.189e-7, -1.420e-4
0.935, -2.905e-7, -1.420e-4
0.930, -2.691e-7, -1.420e-4
0.925, -2.437e-7, -1.420e-4
0.920, -2.235e-7, -1.420e-4
0.915, -2.012e-7, -1.420e-4
0.910, -1.793e-7, -1.420e-4
0.905, -1.619e-7, -1.421e-4
0.900, -1.486e-7, -1.421e-4
0.895, -1.287e-7, -1.421e-4
0.890, -1.040e-7, -1.421e-4
0.885, -8.490e-8, -1.421e-4
0.880, -7.132e-8, -1.421e-4
0.875, -4.905e-8, -1.421e-4
0.870, -3.341e-8, -1.421e-4
0.865, -1.541e-8, -1.421e-4
0.860, -2.304e-9, -1.421e-4
0.855, 1.575e-8, -1.421e-4
0.850, 2.432e-8, -1.421e-4
0.845, 4.046e-8, -1.421e-4
0.840, 5.382e-8, -1.421e-4
0.835, 6.777e-8, -1.421e-4
0.830, 7.506e-8, -1.421e-4
0.825, 9.086e-8, -1.421e-4
0.820, 1.005e-7, -1.421e-4
0.815, 1.167e-7, -1.421e-4
0.810, 1.230e-7, -1.421e-4
0.805, 1.363e-7, -1.420e-4
0.800, 1.483e-7, -1.420e-4
0.795, 1.623e-7, -1.420e-4
0.790, 1.685e-7, -1.420e-4
0.785, 1.793e-7, -1.420e-4
0.780, 1.894e-7, -1.420e-4
0.775, 2.046e-7, -1.420e-4
0.770, 2.122e-7, -1.420e-4
0.765, 2.212e-7, -1.420e-4
0.760, 2.271e-7, -1.420e-4
0.755, 2.403e-7, -1.419e-4
0.750, 2.550e-7, -1.419e-4
0.745, 2.679e-7, -1.419e-4
0.740, 2.782e-7, -1.419e-4
0.735, 2.906e-7, -1.419e-4
0.730, 3.029e-7, -1.419e-4
0.725, 3.117e-7, -1.419e-4
0.720, 3.185e-7, -1.418e-4
0.715, 3.335e-7, -1.418e-4
0.710, 3.473e-7, -1.418e-4
0.705, 3.616e-7, -1.418e-4
0.700, 3.692e-7, -1.418e-4
0.695, 3.867e-7, -1.418e-4
0.690, 4.032e-7, -1.417e-4
0.685, 4.158e-7, -1.417e-4
0.680, 4.275e-7, -1.417e-4
0.675, 4.492e-7, -1.417e-4
0.670, 4.616e-7, -1.416e-4
0.665, 4.792e-7, -1.416e-4
0.660, 4.997e-7, -1.416e-4
0.655, 5.157e-7, -1.416e-4
0.650, 5.347e-7, -1.415e-4
0.645, 5.579e-7, -1.415e-4
0.640, 5.766e-7, -1.415e-4
0.635, 6.046e-7, -1.415e-4
0.630, 6.192e-7, -1.414e-4
0.625, 6.501e-7, -1.414e-4
0.620, 6.804e-7, -1.414e-4
0.615, 7.072e-7, -1.413e-4
0.610, 7.358e-7, -1.413e-4
0.605, 7.672e-7, -1.413e-4
0.600, 8.011e-7, -1.412e-4
0.595, 8.378e-7, -1.412e-4
0.590, 8.727e-7, -1.411e-4
0.585, 9.125e-7, -1.411e-4
0.580, 9.528e-7, -1.410e-4
0.575, 1.002e-6, -1.410e-4
0.570, 1.046e-6, -1.409e-4
0.565, 1.098e-6, -1.409e-4
0.560, 1.149e-6, -1.408e-4
0.555, 1.210e-6, -1.408e-4
0.550, 1.267e-6, -1.407e-4
0.545, 1.333e-6, -1.406e-4
0.540, 1.411e-6, -1.406e-4
0.535, 1.495e-6, -1.405e-4
0.530, 1.565e-6, -1.404e-4
0.525, 1.648e-6, -1.403e-4
0.520, 1.726e-6, -1.402e-4
0.515, 1.813e-6, -1.401e-4
0.510, 1.897e-6, -1.400e-4
0.505, 1.988e-6, -1.399e-4
0.500, 2.071e-6, -1.398e-4
0.495, 2.153e-6, -1.397e-4
0.490, 2.232e-6, -1.396e-4
0.485, 2.303e-6, -1.395e-4
0.480, 2.363e-6, -1.394e-4
0.475, 2.409e-6, -1.393e-4
0.470, 2.421e-6, -1.392e-4
0.465, 2.422e-6, -1.390e-4
0.460, 2.388e-6, -1.389e-4
0.455, 2.317e-6, -1.388e-4
0.450, 2.206e-6, -1.387e-4
0.445, 2.051e-6, -1.386e-4
0.440, 1.846e-6, -1.385e-4
0.435, 1.592e-6, -1.384e-4
0.430, 1.264e-6, -1.383e-4
0.425, 9.125e-7, -1.383e-4
0.420, 5.177e-7, -1.383e-4
0.415, 8.636e-8, -1.383e-4
0.410, -3.909e-7, -1.383e-4
0.405, -8.565e-7, -1.383e-4
0.400, -1.326e-6, -1.384e-4
0.395, -1.800e-6, -1.385e-4
0.390, -2.251e-6, -1.386e-4
0.385, -2.671e-6, -1.387e-4
0.380, -3.058e-6, -1.389e-4
0.375, -3.415e-6, -1.391e-4
0.370, -3.730e-6, -1.392e-4
0.365, -4.006e-6, -1.394e-4
0.360, -4.239e-6, -1.397e-4
0.355, -4.426e-6, -1.399e-4
0.350, -4.575e-6, -1.401e-4
0.345, -4.688e-6, -1.403e-4
0.340, -4.761e-6, -1.406e-4
0.335, -4.806e-6, -1.408e-4
0.330, -4.817e-6, -1.411e-4
0.325, -4.795e-6, -1.413e-4
0.320, -4.749e-6, -1.415e-4
0.315, -4.677e-6, -1.418e-4
0.310, -4.585e-6, -1.420e-4
0.305, -4.465e-6, -1.422e-4
0.300, -4.322e-6, -1.424e-4
0.295, -4.167e-6, -1.427e-4
0.290, -3.990e-6, -1.429e-4
0.285, -3.806e-6, -1.430e-4
0.280, -3.613e-6, -1.432e-4
0.275, -3.414e-6, -1.434e-4
0.270, -3.203e-6, -1.436e-4
0.265, -2.996e-6, -1.437e-4
0.260, -2.791e-6, -1.438e-4
0.255, -2.590e-6, -1.440e-4
0.250, -2.390e-6, -1.441e-4
0.245, -2.202e-6, -1.442e-4
0.240, -2.022e-6, -1.443e-4
0.235, -1.856e-6, -1.444e-4
0.230, -1.684e-6, -1.445e-4
0.225, -1.530e-6, -1.446e-4
0.220, -1.386e-6, -1.446e-4
0.215, -1.252e-6, -1.447e-4
0.210, -1.130e-6, -1.447e-4
0.205, -1.008e-6, -1.448e-4
0.200, -9.008e-7, -1.448e-4
0.195, -8.015e-7, -1.449e-4
0.190, -7.048e-7, -1.449e-4
0.185, -6.181e-7, -1.449e-4
0.180, -5.420e-7, -1.450e-4
0.175, -4.654e-7, -1.450e-4
0.170, -4.045e-7, -1.450e-4
0.165, -3.465e-7, -1.450e-4
0.160, -2.970e-7, -1.450e-4
0.155, -2.468e-7, -1.451e-4
0.150, -2.070e-7, -1.451e-4
0.145, -1.624e-7, -1.451e-4
0.140, -1.365e-7, -1.451e-4
0.135, -9.859e-8, -1.451e-4
0.130, -7.041e-8, -1.451e-4
0.125, -3.347e-8, -1.451e-4
0.120, -1.390e-8, -1.451e-4
0.115, 1.126e-8, -1.451e-4
0.110, 2.677e-8, -1.451e-4
0.105, 4.717e-8, -1.451e-4
0.100, 6.304e-8, -1.451e-4
0.095, 7.922e-8, -1.451e-4
0.090, 8.620e-8, -1.451e-4
0.085, 1.031e-7, -1.451e-4
0.080, 1.135e-7, -1.451e-4
0.075, 1.247e-7, -1.451e-4
0.070, 1.293e-7, -1.451e-4
0.065, 1.400e-7, -1.451e-4
0.060, 1.495e-7, -1.450e-4
0.055, 1.599e-7, -1.450e-4
0.050, 1.668e-7, -1.450e-4
0.045, 1.766e-7, -1.450e-4
0.040, 1.826e-7, -1.450e-4
0.035, 1.950e-7, -1.450e-4
0.030, 2.032e-7, -1.450e-4
0.025, 2.125e-7, -1.450e-4
0.020, 2.176e-7, -1.450e-4
0.015, 2.264e-7, -1.450e-4
0.010, 2.320e-7, -1.449e-4
0.005, 2.450e-7, -1.449e-4
0.000, 2.592e-7, -1.449e-4
-0.005, 2.750e-7, -1.449e-4
-0.010, 2.932e-7, -1.449e-4
-0.015, 3.113e-7, -1.449e-4
-0.020, 3.275e-7, -1.449e-4
-0.025, 3.579e-7, -1.448e-4
-0.030, 3.823e-7, -1.448e-4
-0.035, 4.094e-7, -1.448e-4
-0.040, 4.359e-7, -1.448e-4
-0.045, 4.680e-7, -1.448e-4
-0.050, 4.973e-7, -1.447e-4
-0.055, 5.362e-7, -1.447e-4
-0.060, 5.698e-7, -1.447e-4
-0.065, 6.051e-7, -1.446e-4
-0.070, 6.461e-7, -1.446e-4
-0.075, 6.888e-7, -1.446e-4
-0.080, 7.273e-7, -1.445e-4
-0.085, 7.730e-7, -1.445e-4
-0.090, 8.150e-7, -1.445e-4
-0.095, 8.632e-7, -1.444e-4
-0.100, 9.127e-7, -1.444e-4
-0.105, 9.505e-7, -1.443e-4
-0.110, 9.977e-7, -1.443e-4
-0.115, 1.038e-6, -1.442e-4
-0.120, 1.091e-6, -1.442e-4
-0.125, 1.147e-6, -1.441e-4
-0.130, 1.189e-6, -1.441e-4
-0.135, 1.239e-6, -1.440e-4
-0.140, 1.287e-6, -1.439e-4
-0.145, 1.342e-6, -1.439e-4
-0.150, 1.386e-6, -1.438e-4
-0.155, 1.426e-6, -1.437e-4
-0.160, 1.471e-6, -1.436e-4
-0.165, 1.513e-6, -1.436e-4
-0.170, 1.552e-6, -1.435e-4
-0.175, 1.593e-6, -1.434e-4
-0.180, 1.630e-6, -1.433e-4
-0.185, 1.657e-6, -1.432e-4
-0.190, 1.848e-8, -1.432e-4

Segment 9:
-0.185, -7.541e-7, -1.433e-4
-0.180, -8.694e-7, -1.433e-4
-0.175, -9.238e-7, -1.434e-4
-0.170, -9.613e-7, -1.434e-4
-0.165, -9.772e-7, -1.435e-4
-0.160, -9.837e-7, -1.435e-4
-0.155, -9.760e-7, -1.436e-4
-0.150, -9.726e-7, -1.436e-4
-0.145, -9.695e-7, -1.437e-4
-0.140, -9.512e-7, -1.437e-4
-0.135, -9.393e-7, -1.438e-4
-0.130, -9.206e-7, -1.438e-4
-0.125, -8.949e-7, -1.439e-4
-0.120, -8.718e-7, -1.439e-4
-0.115, -8.411e-7, -1.439e-4
-0.110, -8.188e-7, -1.440e-4
-0.105, -7.915e-7, -1.440e-4
-0.100, -7.663e-7, -1.441e-4
-0.095, -7.340e-7, -1.441e-4
-0.090, -7.034e-7, -1.441e-4
-0.085, -6.733e-7, -1.442e-4
-0.080, -6.432e-7, -1.442e-4
-0.075, -6.088e-7, -1.442e-4
-0.070, -5.791e-7, -1.443e-4
-0.065, -5.482e-7, -1.443e-4
-0.060, -5.184e-7, -1.443e-4
-0.055, -4.858e-7, -1.443e-4
-0.050, -4.602e-7, -1.444e-4
-0.045, -4.363e-7, -1.444e-4
-0.040, -4.111e-7, -1.444e-4
-0.035, -3.883e-7, -1.444e-4
-0.030, -3.738e-7, -1.444e-4
-0.025, -3.483e-7, -1.445e-4
-0.020, -3.343e-7, -1.445e-4
-0.015, -3.126e-7, -1.445e-4
-0.010, -3.005e-7, -1.445e-4
-0.005, -2.845e-7, -1.445e-4
-0.000, -2.724e-7, -1.445e-4
0.005, -2.626e-7, -1.445e-4
0.010, -2.564e-7, -1.446e-4
0.015, -2.452e-7, -1.446e-4
0.020, -2.430e-7, -1.446e-4
0.025, -2.368e-7, -1.446e-4
0.030, -2.377e-7, -1.446e-4
0.035, -2.353e-7, -1.446e-4
0.040, -2.404e-7, -1.446e-4
0.045, -2.428e-7, -1.446e-4
0.050, -2.503e-7, -1.447e-4
0.055, -2.564e-7, -1.447e-4
0.060, -2.660e-7, -1.447e-4
0.065, -2.722e-7, -1.447e-4
0.070, -2.864e-7, -1.447e-4
0.075, -2.981e-7, -1.447e-4
0.080, -3.164e-7, -1.447e-4
0.085, -3.262e-7, -1.448e-4
0.090, -3.435e-7, -1.448e-4
0.095, -3.605e-7, -1.448e-4
0.100, -3.809e-7, -1.448e-4
0.105, -3.996e-7, -1.448e-4
0.110, -4.263e-7, -1.448e-4
0.115, -4.434e-7, -1.449e-4
0.120, -4.721e-7, -1.449e-4
0.125, -4.930e-7, -1.449e-4
0.130, -5.290e-7, -1.449e-4
0.135, -5.561e-7, -1.450e-4
0.140, -5.852e-7, -1.450e-4
0.145, -6.173e-7, -1.450e-4
0.150, -6.516e-7, -1.451e-4
0.155, -6.861e-7, -1.451e-4
0.160, -7.271e-7, -1.451e-4
0.165, -7.620e-7, -1.452e-4
0.170, -8.052e-7, -1.452e-4
0.175, -8.444e-7, -1.453e-4
0.180, -8.870e-7, -1.453e-4
0.185, -9.352e-7, -1.453e-4
0.190, -9.798e-7, -1.454e-4
0.195, -1.026e-6, -1.454e-4
0.200, -1.081e-6, -1.455e-4
0.205, -1.130e-6, -1.456e-4
0.210, -1.186e-6, -1.456e-4
0.215, -1.240e-6, -1.457e-4
0.220, -1.300e-6, -1.457e-4
0.225, -1.355e-6, -1.458e-4
0.230, -1.416e-6, -1.459e-4
0.235, -1.475e-6, -1.460e-4
0.240, -1.538e-6, -1.460e-4
0.245, -1.600e-6, -1.461e-4
0.250, -1.664e-6, -1.462e-4
0.255, -1.742e-6, -1.463e-4
0.260, -1.812e-6, -1.464e-4
0.265, -1.880e-6, -1.465e-4
0.270, -1.949e-6, -1.466e-4
0.275, -2.018e-6, -1.467e-4
0.280, -2.092e-6, -1.468e-4
0.285, -2.164e-6, -1.469e-4
0.290, -2.244e-6, -1.470e-4
0.295, -2.318e-6, -1.471e-4
0.300, -2.397e-6, -1.472e-4
0.305, -2.480e-6, -1.474e-4
0.310, -2.560e-6, -1.475e-4
0.315, -2.641e-6, -1.476e-4
0.320, -2.726e-6, -1.477e-4
0.325, -2.819e-6, -1.479e-4
0.330, -2.910e-6, -1.480e-4
0.335, -3.013e-6, -1.482e-4
0.340, -3.110e-6, -1.483e-4
0.345, -3.224e-6, -1.485e-4
0.350, -3.341e-6, -1.487e-4
0.355, -3.461e-6, -1.488e-4
0.360, -3.591e-6, -1.490e-4
0.365, -3.723e-6, -1.492e-4
0.370, -3.873e-6, -1.494e-4
0.375, -4.024e-6, -1.496e-4
0.380, -4.191e-6, -1.498e-4
0.385, -4.360e-6, -1.500e-4
0.390, -4.546e-6, -1.503e-4
0.395, -4.739e-6, -1.505e-4
0.400, -4.963e-6, -1.507e-4
0.405, -5.180e-6, -1.510e-4
0.410, -5.395e-6, -1.513e-4
0.415, -5.631e-6, -1.516e-4
0.420, -5.880e-6, -1.518e-4
0.425, -6.130e-6, -1.522e-4
0.430, -6.392e-6, -1.525e-4
0.435, -6.637e-6, -1.528e-4
0.440, -6.868e-6, -1.531e-4
0.445, -7.090e-6, -1.535e-4
0.450, -7.317e-6, -1.539e-4
0.455, -7.530e-6, -1.542e-4
0.460, -7.756e-6, -1.546e-4
0.465, -7.992e-6, -1.550e-4
0.470, -8.216e-6, -1.554e-4
0.475, -8.424e-6, -1.559e-4
0.480, -8.582e-6, -1.563e-4
0.485, -8.678e-6, -1.567e-4
0.490, -8.702e-6, -1.572e-4
0.495, -8.664e-6, -1.576e-4
0.500, -8.573e-6, -1.580e-4
0.505, -8.454e-6, -1.584e-4
0.510, -8.317e-6, -1.589e-4
0.515, -8.146e-6, -1.593e-4
0.520, -7.943e-6, -1.597e-4
0.525, -7.722e-6, -1.601e-4
0.530, -7.487e-6, -1.604e-4
0.535, -7.236e-6, -1.608e-4
0.540, -6.980e-6, -1.611e-4
0.545, -6.720e-6, -1.615e-4
0.550, -6.466e-6, -1.618e-4
0.555, -6.203e-6, -1.621e-4
0.560, -5.960e-6, -1.624e-4
0.565, -5.728e-6, -1.627e-4
0.570, -5.503e-6, -1.630e-4
0.575, -5.294e-6, -1.632e-4
0.580, -5.098e-6, -1.635e-4
0.585, -4.910e-6, -1.637e-4
0.590, -4.720e-6, -1.640e-4
0.595, -4.549e-6, -1.642e-4
0.600, -4.393e-6, -1.644e-4
0.605, -4.245e-6, -1.646e-4
0.610, -4.097e-6, -1.648e-4
0.615, -3.956e-6, -1.650e-4
0.620, -3.825e-6, -1.652e-4
0.625, -3.692e-6, -1.654e-4
0.630, -3.562e-6, -1.656e-4
0.635, -3.445e-6, -1.658e-4
0.640, -3.336e-6, -1.659e-4
0.645, -3.219e-6, -1.661e-4
0.650, -3.112e-6, -1.662e-4
0.655, -3.017e-6, -1.664e-4
0.660, -2.922e-6, -1.665e-4
0.665, -2.830e-6, -1.667e-4
0.670, -2.750e-6, -1.668e-4
0.675, -2.672e-6, -1.669e-4
0.680, -2.599e-6, -1.671e-4
0.685, -2.528e-6, -1.672e-4
0.690, -2.465e-6, -1.673e-4
0.695, -2.403e-6, -1.674e-4
0.700, -2.348e-6, -1.676e-4
0.705, -2.296e-6, -1.677e-4
0.710, -2.250e-6, -1.678e-4
0.715, -2.204e-6, -1.679e-4
0.720, -2.162e-6, -1.680e-4
0.725, -2.124e-6, -1.681e-4
0.730, -2.092e-6, -1.682e-4
0.735, -2.053e-6, -1.683e-4
0.740, -2.030e-6, -1.684e-4
0.745, -2.006e-6, -1.685e-4
0.750, -1.984e-6, -1.686e-4
0.755, -1.962e-6, -1.687e-4
0.760, -1.946e-6, -1.688e-4
0.765, -1.931e-6, -1.689e-4
0.770, -1.923e-6, -1.690e-4
0.775, -1.911e-6, -1.691e-4
0.780, -1.906e-6, -1.692e-4
0.785, -1.900e-6, -1.693e-4
0.790, -1.901e-6, -1.694e-4
0.795, -1.899e-6, -1.695e-4
0.800, -1.901e-6, -1.696e-4
0.805, -1.905e-6, -1.697e-4
0.810, -1.916e-6, -1.698e-4
0.815, -1.925e-6, -1.699e-4
0.820, -1.931e-6, -1.700e-4
0.825, -1.944e-6, -1.701e-4
0.830, -1.965e-6, -1.702e-4
0.835, -1.981e-6, -1.703e-4
0.840, -2.004e-6, -1.704e-4
0.845, -2.027e-6, -1.705e-4
0.850, -2.048e-6, -1.706e-4
0.855, -2.084e-6, -1.707e-4
0.860, -2.119e-6, -1.708e-4
0.865, -2.145e-6, -1.709e-4
0.870, -2.185e-6, -1.710e-4
0.875, -2.225e-6, -1.711e-4
0.880, -2.269e-6, -1.712e-4
0.885, -2.310e-6, -1.713e-4
0.890, -2.359e-6, -1.715e-4
0.895, -2.408e-6, -1.716e-4
0.900, -2.461e-6, -1.717e-4
0.905, -2.519e-6, -1.718e-4
0.910, -2.574e-6, -1.720e-4
0.915, -2.634e-6, -1.721e-4
0.920, -2.697e-6, -1.722e-4
0.925, -2.759e-6, -1.724e-4
0.930, -2.824e-6, -1.725e-4
0.935, -2.897e-6, -1.726e-4
0.940, -2.965e-6, -1.728e-4
0.945, -3.033e-6, -1.729e-4
0.950, -3.108e-6, -1.731e-4
0.955, -3.178e-6, -1.733e-4
0.960, -3.253e-6, -1.734e-4
0.965, -3.327e-6, -1.736e-4
0.970, -3.406e-6, -1.738e-4
0.975, -3.479e-6, -1.739e-4
0.980, -3.559e-6, -1.741e-4
0.985, -3.629e-6, -1.743e-4
0.990, -3.709e-6, -1.745e-4
0.995, -3.785e-6, -1.747e-4
1.000, -3.859e-6, -1.749e-4
1.005, -3.930e-6, -1.751e-4
1.010, -4.000e-6, -1.753e-4
1.015, -4.072e-6, -1.755e-4
1.020, -4.142e-6, -1.757e-4
1.025, -4.208e-6, -1.759e-4
1.030, -4.272e-6, -1.761e-4
1.035, -4.336e-6, -1.763e-4
1.040, -4.398e-6, -1.765e-4
1.045, -4.461e-6, -1.767e-4
1.050, -4.521e-6, -1.770e-4
1.055, -4.576e-6, -1.772e-4
1.060, -4.630e-6, -1.774e-4
1.065, -4.679e-6, -1.777e-4
1.070, -4.728e-6, -1.779e-4
1.075, -4.770e-6, -1.781e-4
1.080, -4.822e-6, -1.784e-4
1.085, -4.868e-6, -1.786e-4
1.090, -4.912e-6, -1.789e-4
1.095, -4.951e-6, -1.791e-4
1.100, -4.988e-6, -1.794e-4
1.105, -5.013e-6, -1.796e-4
1.110, -5.049e-6, -1.799e-4
1.115, -5.070e-6, -1.801e-4
1.120, -5.102e-6, -1.804e-4
1.125, -5.129e-6, -1.806e-4
1.130, -5.155e-6, -1.809e-4
1.135, -5.170e-6, -1.812e-4
1.140, -5.196e-6, -1.814e-4
1.145, -5.230e-6, -1.817e-4
1.150, -4.886e-6, -1.819e-4

Segment 10:
1.145, -4.313e-6, -1.821e-4
1.140, -3.895e-6, -1.823e-4
1.135, -3.554e-6, -1.825e-4
1.130, -3.270e-6, -1.827e-4
1.125, -3.026e-6, -1.828e-4
1.120, -2.808e-6, -1.830e-4
1.115, -2.624e-6, -1.831e-4
1.110, -2.456e-6, -1.832e-4
1.105, -2.298e-6, -1.833e-4
1.100, -2.163e-6, -1.834e-4
1.095, -2.034e-6, -1.835e-4
1.090, -1.916e-6, -1.836e-4
1.085, -1.801e-6, -1.837e-4
1.080, -1.693e-6, -1.838e-4
1.075, -1.595e-6, -1.839e-4
1.070, -1.512e-6, -1.840e-4
1.065, -1.425e-6, -1.840e-4
1.060, -1.351e-6, -1.841e-4
1.055, -1.276e-6, -1.842e-4
1.050, -1.209e-6, -1.842e-4
1.045, -1.143e-6, -1.843e-4
1.040, -1.085e-6, -1.843e-4
1.035, -1.023e-6, -1.844e-4
1.030, -9.703e-7, -1.844e-4
1.025, -9.217e-7, -1.845e-4
1.020, -8.679e-7, -1.845e-4
1.015, -8.243e-7, -1.846e-4
1.010, -7.809e-7, -1.846e-4
1.005, -7.382e-7, -1.846e-4
1.000, -7.021e-7, -1.847e-4
0.995, -6.595e-7, -1.847e-4
0.990, -6.225e-7, -1.847e-4
0.985, -5.864e-7, -1.848e-4
0.980, -5.589e-7, -1.848e-4
0.975, -5.236e-7, -1.848e-4
0.970, -4.814e-7, -1.849e-4
0.965, -4.569e-7, -1.849e-4
0.960, -4.255e-7, -1.849e-4
0.955, -3.984e-7, -1.849e-4
0.950, -3.702e-7, -1.849e-4
0.945, -3.435e-7, -1.850e-4
0.940, -3.210e-7, -1.850e-4
0.935, -2.936e-7, -1.850e-4
0.930, -2.714e-7, -1.850e-4
0.925, -2.443e-7, -1.850e-4
0.920, -2.246e-7, -1.850e-4
0.915, -2.024e-7, -1.850e-4
0.910, -1.805e-7, -1.850e-4
0.905, -1.643e-7, -1.850e-4
0.900, -1.500e-7, -1.851e-4
0.895, -1.288e-7, -1.851e-4
0.890, -1.016e-7, -1.851e-4
0.885, -8.359e-8, -1.851e-4
0.880, -7.148e-8, -1.851e-4
0.875, -4.989e-8, -1.851e-4
0.870, -3.398e-8, -1.851e-4
0.865, -1.801e-8, -1.851e-4
0.860, -1.485e-9, -1.851e-4
0.855, 1.648e-8, -1.851e-4
0.850, 2.340e-8, -1.851e-4
0.845, 3.890e-8, -1.851e-4
0.840, 5.421e-8, -1.851e-4
0.835, 6.813e-8, -1.851e-4
0.830, 7.489e-8, -1.851e-4
0.825, 9.018e-8, -1.851e-4
0.820, 1.022e-7, -1.851e-4
0.815, 1.171e-7, -1.851e-4
0.810, 1.223e-7, -1.850e-4
0.805, 1.367e-7, -1.850e-4
0.800, 1.503e-7, -1.850e-4
0.795, 1.631e-7, -1.850e-4
0.790, 1.680e-7, -1.850e-4
0.785, 1.789e-7, -1.850e-4
0.780, 1.905e-7, -1.850e-4
0.775, 2.063e-7, -1.850e-4
0.770, 2.120e-7, -1.850e-4
0.765, 2.209e-7, -1.850e-4
0.760, 2.264e-7, -1.850e-4
0.755, 2.391e-7, -1.849e-4
0.750, 2.558e-7, -1.849e-4
0.745, 2.671e-7, -1.849e-4
0.740, 2.794e-7, -1.849e-4
0.735, 2.940e-7, -1.849e-4
0.730, 3.040e-7, -1.849e-4
0.725, 3.124e-7, -1.849e-4
0.720, 3.186e-7, -1.848e-4
0.715, 3.333e-7, -1.848e-4
0.710, 3.488e-7, -1.848e-4
0.705, 3.614e-7, -1.848e-4
0.700, 3.694e-7, -1.848e-4
0.695, 3.869e-7, -1.847e-4
0.690, 4.035e-7, -1.847e-4
0.685, 4.152e-7, -1.847e-4
0.680, 4.290e-7, -1.847e-4
0.675, 4.516e-7, -1.847e-4
0.670, 4.614e-7, -1.846e-4
0.665, 4.794e-7, -1.846e-4
0.660, 5.002e-7, -1.846e-4
0.655, 5.142e-7, -1.846e-4
0.650, 5.356e-7, -1.845e-4
0.645, 5.577e-7, -1.845e-4
0.640, 5.786e-7, -1.845e-4
0.635, 6.045e-7, -1.845e-4
0.630, 6.183e-7, -1.844e-4
0.625, 6.501e-7, -1.844e-4
0.620, 6.830e-7, -1.844e-4
0.615, 7.056e-7, -1.843e-4
0.610, 7.364e-7, -1.843e-4
0.605, 7.658e-7, -1.842e-4
0.600, 8.010e-7, -1.842e-4
0.595, 8.415e-7, -1.842e-4
0.590, 8.733e-7, -1.841e-4
0.585, 9.131e-7, -1.841e-4
0.580, 9.553e-7, -1.840e-4
0.575, 9.999e-7, -1.840e-4
0.570, 1.049e-6, -1.839e-4
0.565, 1.096e-6, -1.839e-4
0.560, 1.151e-6, -1.838e-4
0.555, 1.210e-6, -1.838e-4
0.550, 1.268e-6, -1.837e-4
0.545, 1.335e-6, -1.836e-4
0.540, 1.413e-6, -1.835e-4
0.535, 1.496e-6, -1.835e-4
0.530, 1.571e-6, -1.834e-4
0.525, 1.652e-6, -1.833e-4
0.520, 1.732e-6, -1.832e-4
0.515, 1.818e-6, -1.831e-4
0.510, 1.902e-6, -1.830e-4
0.505, 1.994e-6, -1.829e-4
0.500, 2.076e-6, -1.828e-4
0.495, 2.160e-6, -1.827e-4
0.490, 2.237e-6, -1.826e-4
0.485, 2.310e-6, -1.825e-4
0.480, 2.367e-6, -1.824e-4
0.475, 2.412e-6, -1.823e-4
0.470, 2.429e-6, -1.821e-4
0.465, 2.425e-6, -1.820e-4
0.460, 2.388e-6, -1.819e-4
0.455, 2.317e-6, -1.818e-4
0.450, 2.201e-6, -1.817e-4
0.445, 2.041e-6, -1.816e-4
0.440, 1.827e-6, -1.815e-4
0.435, 1.571e-6, -1.814e-4
0.430, 1.238e-6, -1.813e-4
0.425, 8.822e-7, -1.813e-4
0.420, 4.755e-7, -1.813e-4
0.415, 3.657e-8, -1.813e-4
0.410, -4.459e-7, -1.813e-4
0.405, -9.172e-7, -1.813e-4
0.400, -1.397e-6, -1.814e-4
0.395, -1.880e-6, -1.815e-4
0.390, -2.337e-6, -1.816e-4
0.385, -2.760e-6, -1.818e-4
0.380, -3.152e-6, -1.819e-4
0.375, -3.505e-6, -1.821e-4
0.370, -3.822e-6, -1.823e-4
0.365, -4.095e-6, -1.825e-4
0.360, -4.326e-6, -1.827e-4
0.355, -4.514e-6, -1.829e-4
0.350, -4.666e-6, -1.832e-4
0.345, -4.781e-6, -1.834e-4
0.340, -4.870e-6, -1.836e-4
0.335, -4.914e-6, -1.839e-4
0.330, -4.928e-6, -1.841e-4
0.325, -4.913e-6, -1.844e-4
0.320, -4.864e-6, -1.846e-4
0.315, -4.779e-6, -1.849e-4
0.310, -4.690e-6, -1.851e-4
0.305, -4.574e-6, -1.853e-4
0.300, -4.445e-6, -1.856e-4
0.295, -4.297e-6, -1.858e-4
0.290, -4.139e-6, -1.860e-4
0.285, -3.968e-6, -1.862e-4
0.280, -3.788e-6, -1.864e-4
0.275, -3.600e-6, -1.865e-4
0.270, -3.409e-6, -1.867e-4
0.265, -3.216e-6, -1.869e-4
0.260, -3.023e-6, -1.870e-4
0.255, -2.835e-6, -1.872e-4
0.250, -2.647e-6, -1.873e-4
0.245, -2.457e-6, -1.874e-4
0.240, -2.272e-6, -1.875e-4
0.235, -2.079e-6, -1.876e-4
0.230, -1.899e-6, -1.877e-4
0.225, -1.721e-6, -1.878e-4
0.220, -1.553e-6, -1.879e-4
0.215, -1.402e-6, -1.880e-4
0.210, -1.263e-6, -1.880e-4
0.205, -1.129e-6, -1.881e-4
0.200, -1.005e-6, -1.881e-4
0.195, -8.929e-7, -1.882e-4
0.190, -7.921e-7, -1.882e-4
0.185, -7.004e-7, -1.883e-4
0.180, -6.148e-7, -1.883e-4
0.175, -5.437e-7, -1.883e-4
0.170, -4.705e-7, -1.883e-4
0.165, -4.120e-7, -1.884e-4
0.160, -3.564e-7, -1.884e-4
0.155, -3.069e-7, -1.884e-4
0.150, -2.570e-7, -1.884e-4
0.145, -2.108e-7, -1.884e-4
0.140, -1.724e-7, -1.884e-4
0.135, -1.371e-7, -1.884e-4
0.130, -8.972e-8, -1.884e-4
0.125, -6.161e-8, -1.884e-4
0.120, -3.056e-8, -1.884e-4
0.115, -3.347e-9, -1.884e-4
0.110, 1.600e-8, -1.884e-4
0.105, 3.337e-8, -1.884e-4
0.100, 5.422e-8, -1.884e-4
0.095, 6.900e-8, -1.884e-4
0.090, 7.791e-8, -1.884e-4
0.085, 9.748e-8, -1.884e-4
0.080, 1.105e-7, -1.884e-4
0.075, 1.204e-7, -1.884e-4
0.070, 1.266e-7, -1.884e-4
0.065, 1.393e-7, -1.884e-4
0.060, 1.496e-7, -1.884e-4
0.055, 1.599e-7, -1.884e-4
0.050, 1.644e-7, -1.884e-4
0.045, 1.722e-7, -1.884e-4
0.040, 1.763e-7, -1.884e-4
0.035, 1.862e-7, -1.883e-4
0.030, 1.975e-7, -1.883e-4
0.025, 2.085e-7, -1.883e-4
0.020, 2.114e-7, -1.883e-4
0.015, 2.195e-7, -1.883e-4
0.010, 2.254e-7, -1.883e-4
0.005, 2.414e-7, -1.883e-4
0.000, 2.584e-7, -1.883e-4
-0.005, 2.747e-7, -1.883e-4
-0.010, 2.970e-7, -1.882e-4
-0.015, 3.105e-7, -1.882e-4
-0.020, 3.270e-7, -1.882e-4
-0.025, 3.497e-7, -1.882e-4
-0.030, 3.740e-7, -1.882e-4
-0.035, 3.976e-7, -1.882e-4
-0.040, 4.284e-7, -1.881e-4
-0.045, 4.537e-7, -1.881e-4
-0.050, 4.854e-7, -1.881e-4
-0.055, 5.210e-7, -1.881e-4
-0.060, 5.530e-7, -1.880e-4
-0.065, 5.882e-7, -1.880e-4
-0.070, 6.370e-7, -1.880e-4
-0.075, 6.812e-7, -1.879e-4
-0.080, 7.285e-7, -1.879e-4
-0.085, 7.685e-7, -1.879e-4
-0.090, 8.102e-7, -1.878e-4
-0.095, 8.529e-7, -1.878e-4
-0.100, 8.998e-7, -1.877e-4
-0.105, 9.398e-7, -1.877e-4
-0.110, 9.890e-7, -1.876e-4
-0.115, 1.036e-6, -1.876e-4
-0.120, 1.087e-6, -1.875e-4
-0.125, 1.139e-6, -1.875e-4
-0.130, 1.185e-6, -1.874e-4
-0.135, 1.237e-6, -1.873e-4
-0.140, 1.286e-6, -1.873e-4
-0.145, 1.339e-6, -1.872e-4
-0.150, 1.392e-6, -1.871e-4
-0.155, 1.419e-6, -1.871e-4
-0.160, 1.462e-6, -1.870e-4
-0.165, 1.495e-6, -1.869e-4
-0.170, 1.535e-6, -1.869e-4
-0.175, 1.570e-6, -1.868e-4
-0.180, 1.608e-6, -1.867e-4
-0.185, 1.636e-6, -1.866e-4
-0.190, 7.106e-9, -1.866e-4
