Nov. 18, 2020   14:02:18
Cyclic Voltammetry
File: c:\documents and settings\administrator\×ÀÃæ\wyz\o2a.txt
Data Source:  Experiment
Instrument Model:  CHI600B
Header: 
Note: 

Init E (V) = 0.65
High E (V) = 1.15
Low E (V) = -0.28
Init P/N = P
Scan Rate (V/s) = 0.1
Segment = 10
Sample Interval (V) = 0.005
Quiet Time (sec) = 2
Sensitivity (A/V) = 1e-5

Segment 1:

Segment 2:
Ep = 0.180V
ip = 2.432e-5A
Ah = 2.274e-5C

Segment 3:

Segment 4:
Ep = 0.245V
ip = 2.148e-5A
Ah = 1.717e-5C

Segment 5:
Segment 6:
Ep = 0.225V
ip = 2.464e-5A
Ah = 3.007e-5C

Segment 7:
Segment 8:
Ep = 0.185V
ip = 2.746e-5A
Ah = 2.834e-5C

Segment 9:
Segment 10:
Ep = 0.245V
ip = 2.334e-5A
Ah = 2.047e-5C

Potential/V, Current/A, Charge/C

Segment 1:
0.655, -2.105e-7, -1.052e-8
0.660, -2.161e-7, -2.133e-8
0.665, -2.225e-7, -3.246e-8
0.670, -2.262e-7, -4.377e-8
0.675, -2.304e-7, -5.529e-8
0.680, -2.367e-7, -6.712e-8
0.685, -2.441e-7, -7.932e-8
0.690, -2.520e-7, -9.193e-8
0.695, -2.598e-7, -1.049e-7
0.700, -2.709e-7, -1.185e-7
0.705, -2.834e-7, -1.326e-7
0.710, -2.999e-7, -1.476e-7
0.715, -3.111e-7, -1.632e-7
0.720, -3.294e-7, -1.797e-7
0.725, -3.392e-7, -1.966e-7
0.730, -3.535e-7, -2.143e-7
0.735, -3.676e-7, -2.327e-7
0.740, -3.807e-7, -2.517e-7
0.745, -3.916e-7, -2.713e-7
0.750, -4.123e-7, -2.919e-7
0.755, -4.279e-7, -3.133e-7
0.760, -4.415e-7, -3.354e-7
0.765, -4.579e-7, -3.583e-7
0.770, -4.791e-7, -3.822e-7
0.775, -5.030e-7, -4.074e-7
0.780, -5.303e-7, -4.339e-7
0.785, -5.606e-7, -4.619e-7
0.790, -5.822e-7, -4.910e-7
0.795, -6.054e-7, -5.213e-7
0.800, -6.342e-7, -5.530e-7
0.805, -6.587e-7, -5.859e-7
0.810, -6.888e-7, -6.204e-7
0.815, -7.156e-7, -6.562e-7
0.820, -7.410e-7, -6.932e-7
0.825, -7.652e-7, -7.315e-7
0.830, -7.895e-7, -7.709e-7
0.835, -8.164e-7, -8.118e-7
0.840, -8.424e-7, -8.539e-7
0.845, -8.701e-7, -8.974e-7
0.850, -9.150e-7, -9.431e-7
0.855, -9.363e-7, -9.900e-7
0.860, -9.655e-7, -1.038e-6
0.865, -1.002e-6, -1.088e-6
0.870, -1.036e-6, -1.140e-6
0.875, -1.071e-6, -1.194e-6
0.880, -1.111e-6, -1.249e-6
0.885, -1.141e-6, -1.306e-6
0.890, -1.177e-6, -1.365e-6
0.895, -1.210e-6, -1.426e-6
0.900, -1.242e-6, -1.488e-6
0.905, -1.273e-6, -1.551e-6
0.910, -1.308e-6, -1.617e-6
0.915, -1.345e-6, -1.684e-6
0.920, -1.380e-6, -1.753e-6
0.925, -1.415e-6, -1.824e-6
0.930, -1.454e-6, -1.897e-6
0.935, -1.492e-6, -1.971e-6
0.940, -1.533e-6, -2.048e-6
0.945, -1.572e-6, -2.126e-6
0.950, -1.616e-6, -2.207e-6
0.955, -1.649e-6, -2.290e-6
0.960, -1.702e-6, -2.375e-6
0.965, -1.750e-6, -2.462e-6
0.970, -1.790e-6, -2.552e-6
0.975, -1.833e-6, -2.643e-6
0.980, -1.874e-6, -2.737e-6
0.985, -1.906e-6, -2.832e-6
0.990, -1.940e-6, -2.929e-6
0.995, -1.987e-6, -3.029e-6
1.000, -2.031e-6, -3.130e-6
1.005, -2.071e-6, -3.234e-6
1.010, -2.112e-6, -3.339e-6
1.015, -2.149e-6, -3.447e-6
1.020, -2.194e-6, -3.557e-6
1.025, -2.235e-6, -3.668e-6
1.030, -2.282e-6, -3.782e-6
1.035, -2.319e-6, -3.898e-6
1.040, -2.364e-6, -4.017e-6
1.045, -2.402e-6, -4.137e-6
1.050, -2.444e-6, -4.259e-6
1.055, -2.482e-6, -4.383e-6
1.060, -2.515e-6, -4.509e-6
1.065, -2.549e-6, -4.636e-6
1.070, -2.570e-6, -4.765e-6
1.075, -2.629e-6, -4.896e-6
1.080, -2.659e-6, -5.029e-6
1.085, -2.670e-6, -5.163e-6
1.090, -2.723e-6, -5.299e-6
1.095, -2.754e-6, -5.436e-6
1.100, -2.791e-6, -5.576e-6
1.105, -2.819e-6, -5.717e-6
1.110, -2.855e-6, -5.860e-6
1.115, -2.890e-6, -6.004e-6
1.120, -2.915e-6, -6.150e-6
1.125, -2.943e-6, -6.297e-6
1.130, -2.971e-6, -6.446e-6
1.135, -2.984e-6, -6.595e-6
1.140, -3.013e-6, -6.745e-6
1.145, -3.036e-6, -6.897e-6
1.150, -2.799e-6, -7.037e-6

Segment 2:
1.145, -2.333e-6, -7.154e-6
1.140, -1.983e-6, -7.253e-6
1.135, -1.707e-6, -7.338e-6
1.130, -1.477e-6, -7.412e-6
1.125, -1.286e-6, -7.476e-6
1.120, -1.139e-6, -7.533e-6
1.115, -9.995e-7, -7.583e-6
1.110, -8.950e-7, -7.628e-6
1.105, -7.957e-7, -7.668e-6
1.100, -7.165e-7, -7.704e-6
1.095, -6.387e-7, -7.736e-6
1.090, -5.816e-7, -7.765e-6
1.085, -5.254e-7, -7.791e-6
1.080, -4.719e-7, -7.815e-6
1.075, -4.223e-7, -7.836e-6
1.070, -3.810e-7, -7.855e-6
1.065, -3.430e-7, -7.872e-6
1.060, -3.161e-7, -7.888e-6
1.055, -2.768e-7, -7.902e-6
1.050, -2.503e-7, -7.914e-6
1.045, -2.274e-7, -7.925e-6
1.040, -2.088e-7, -7.936e-6
1.035, -1.861e-7, -7.945e-6
1.030, -1.686e-7, -7.954e-6
1.025, -1.568e-7, -7.961e-6
1.020, -1.439e-7, -7.969e-6
1.015, -1.333e-7, -7.975e-6
1.010, -1.176e-7, -7.981e-6
1.005, -1.039e-7, -7.986e-6
1.000, -9.214e-8, -7.991e-6
0.995, -7.907e-8, -7.995e-6
0.990, -6.574e-8, -7.998e-6
0.985, -4.870e-8, -8.001e-6
0.980, -3.983e-8, -8.003e-6
0.975, -2.593e-8, -8.004e-6
0.970, -1.881e-8, -8.005e-6
0.965, -7.118e-9, -8.005e-6
0.960, -2.711e-9, -8.005e-6
0.955, 7.804e-9, -8.005e-6
0.950, 1.157e-8, -8.004e-6
0.945, 1.481e-8, -8.004e-6
0.940, 1.977e-8, -8.003e-6
0.935, 2.709e-8, -8.001e-6
0.930, 2.763e-8, -8.000e-6
0.925, 3.332e-8, -7.998e-6
0.920, 3.895e-8, -7.996e-6
0.915, 4.969e-8, -7.994e-6
0.910, 5.090e-8, -7.991e-6
0.905, 6.170e-8, -7.988e-6
0.900, 6.649e-8, -7.985e-6
0.895, 7.804e-8, -7.981e-6
0.890, 8.262e-8, -7.977e-6
0.885, 9.057e-8, -7.972e-6
0.880, 9.312e-8, -7.968e-6
0.875, 1.021e-7, -7.963e-6
0.870, 9.889e-8, -7.958e-6
0.865, 1.047e-7, -7.952e-6
0.860, 1.047e-7, -7.947e-6
0.855, 1.150e-7, -7.941e-6
0.850, 1.132e-7, -7.936e-6
0.845, 1.234e-7, -7.930e-6
0.840, 1.248e-7, -7.923e-6
0.835, 1.325e-7, -7.917e-6
0.830, 1.377e-7, -7.910e-6
0.825, 1.499e-7, -7.902e-6
0.820, 1.538e-7, -7.895e-6
0.815, 1.649e-7, -7.886e-6
0.810, 1.670e-7, -7.878e-6
0.805, 1.781e-7, -7.869e-6
0.800, 1.803e-7, -7.860e-6
0.795, 1.913e-7, -7.851e-6
0.790, 1.874e-7, -7.841e-6
0.785, 1.969e-7, -7.831e-6
0.780, 1.970e-7, -7.822e-6
0.775, 2.075e-7, -7.811e-6
0.770, 2.073e-7, -7.801e-6
0.765, 2.188e-7, -7.790e-6
0.760, 2.240e-7, -7.779e-6
0.755, 2.318e-7, -7.767e-6
0.750, 2.410e-7, -7.755e-6
0.745, 2.552e-7, -7.742e-6
0.740, 2.672e-7, -7.729e-6
0.735, 2.767e-7, -7.715e-6
0.730, 2.903e-7, -7.701e-6
0.725, 2.968e-7, -7.686e-6
0.720, 3.059e-7, -7.670e-6
0.715, 3.084e-7, -7.655e-6
0.710, 3.208e-7, -7.639e-6
0.705, 3.261e-7, -7.623e-6
0.700, 3.335e-7, -7.606e-6
0.695, 3.424e-7, -7.589e-6
0.690, 3.510e-7, -7.571e-6
0.685, 3.673e-7, -7.553e-6
0.680, 3.775e-7, -7.534e-6
0.675, 3.974e-7, -7.514e-6
0.670, 4.093e-7, -7.494e-6
0.665, 4.289e-7, -7.472e-6
0.660, 4.462e-7, -7.450e-6
0.655, 4.627e-7, -7.427e-6
0.650, 4.797e-7, -7.403e-6
0.645, 4.965e-7, -7.378e-6
0.640, 5.137e-7, -7.352e-6
0.635, 5.309e-7, -7.326e-6
0.630, 5.408e-7, -7.299e-6
0.625, 5.629e-7, -7.271e-6
0.620, 5.813e-7, -7.242e-6
0.615, 6.090e-7, -7.211e-6
0.610, 6.284e-7, -7.180e-6
0.605, 6.522e-7, -7.147e-6
0.600, 6.815e-7, -7.113e-6
0.595, 7.098e-7, -7.078e-6
0.590, 7.442e-7, -7.040e-6
0.585, 7.823e-7, -7.001e-6
0.580, 8.165e-7, -6.960e-6
0.575, 8.580e-7, -6.917e-6
0.570, 8.933e-7, -6.873e-6
0.565, 9.360e-7, -6.826e-6
0.560, 9.772e-7, -6.777e-6
0.555, 1.025e-6, -6.726e-6
0.550, 1.069e-6, -6.672e-6
0.545, 1.128e-6, -6.616e-6
0.540, 1.181e-6, -6.557e-6
0.535, 1.244e-6, -6.495e-6
0.530, 1.310e-6, -6.429e-6
0.525, 1.401e-6, -6.359e-6
0.520, 1.492e-6, -6.285e-6
0.515, 1.588e-6, -6.205e-6
0.510, 1.686e-6, -6.121e-6
0.505, 1.801e-6, -6.031e-6
0.500, 1.916e-6, -5.935e-6
0.495, 2.024e-6, -5.834e-6
0.490, 2.189e-6, -5.725e-6
0.485, 2.343e-6, -5.607e-6
0.480, 2.508e-6, -5.482e-6
0.475, 2.690e-6, -5.347e-6
0.470, 2.885e-6, -5.203e-6
0.465, 3.107e-6, -5.048e-6
0.460, 3.335e-6, -4.881e-6
0.455, 3.590e-6, -4.702e-6
0.450, 3.863e-6, -4.509e-6
0.445, 4.159e-6, -4.301e-6
0.440, 4.479e-6, -4.077e-6
0.435, 4.847e-6, -3.834e-6
0.430, 5.210e-6, -3.574e-6
0.425, 5.589e-6, -3.294e-6
0.420, 5.980e-6, -2.995e-6
0.415, 6.401e-6, -2.675e-6
0.410, 6.803e-6, -2.335e-6
0.405, 7.246e-6, -1.973e-6
0.400, 7.797e-6, -1.583e-6
0.395, 8.354e-6, -1.165e-6
0.390, 8.906e-6, -7.200e-7
0.385, 9.355e-6, -2.522e-7
0.380, 9.881e-6, 2.418e-7
0.375, 1.031e-5, 7.572e-7
0.370, 1.137e-5, 1.326e-6
0.365, 1.180e-5, 1.916e-6
0.360, 1.230e-5, 2.531e-6
0.355, 1.274e-5, 3.168e-6
0.350, 1.335e-5, 3.836e-6
0.345, 1.452e-5, 4.561e-6
0.340, 1.518e-5, 5.320e-6
0.335, 1.526e-5, 6.084e-6
0.330, 1.617e-5, 6.892e-6
0.325, 1.655e-5, 7.720e-6
0.320, 1.704e-5, 8.572e-6
0.315, 1.712e-5, 9.428e-6
0.310, 1.790e-5, 1.032e-5
0.305, 1.905e-5, 1.127e-5
0.300, 2.007e-5, 1.228e-5
0.295, 2.085e-5, 1.332e-5
0.290, 2.123e-5, 1.438e-5
0.285, 2.214e-5, 1.549e-5
0.280, 2.171e-5, 1.657e-5
0.275, 2.169e-5, 1.766e-5
0.270, 2.545e-5, 1.893e-5
0.265, 2.388e-5, 2.013e-5
0.260, 2.369e-5, 2.131e-5
0.255, 2.498e-5, 2.256e-5
0.250, 2.603e-5, 2.386e-5
0.245, 2.879e-5, 2.530e-5
0.240, 2.991e-5, 2.679e-5
0.235, 2.681e-5, 2.813e-5
0.230, 3.100e-5, 2.968e-5
0.225, 2.864e-5, 3.112e-5
0.220, 2.847e-5, 3.254e-5
0.215, 3.225e-5, 3.415e-5
0.210, 3.043e-5, 3.567e-5
0.205, 2.806e-5, 3.708e-5
0.200, 2.759e-5, 3.846e-5
0.195, 2.693e-5, 3.980e-5
0.190, 3.088e-5, 4.135e-5
0.185, 3.650e-5, 4.317e-5
0.180, 4.029e-5, 4.519e-5
0.175, 3.589e-5, 4.698e-5
0.170, 3.168e-5, 4.857e-5
0.165, 3.074e-5, 5.010e-5
0.160, 2.948e-5, 5.158e-5
0.155, 3.017e-5, 5.308e-5
0.150, 3.641e-5, 5.491e-5
0.145, 3.649e-5, 5.673e-5
0.140, 3.557e-5, 5.851e-5
0.135, 3.178e-5, 6.010e-5
0.130, 3.164e-5, 6.168e-5
0.125, 3.013e-5, 6.319e-5
0.120, 3.087e-5, 6.473e-5
0.115, 3.868e-5, 6.666e-5
0.110, 3.663e-5, 6.849e-5
0.105, 3.026e-5, 7.001e-5
0.100, 2.817e-5, 7.142e-5
0.095, 3.434e-5, 7.313e-5
0.090, 3.323e-5, 7.479e-5
0.085, 3.588e-5, 7.659e-5
0.080, 4.560e-5, 7.887e-5
0.075, 4.130e-5, 8.093e-5
0.070, 3.823e-5, 8.284e-5
0.065, 4.001e-5, 8.485e-5
0.060, 3.863e-5, 8.678e-5
0.055, 3.772e-5, 8.866e-5
0.050, 3.369e-5, 9.035e-5
0.045, 3.494e-5, 9.209e-5
0.040, 3.911e-5, 9.405e-5
0.035, 4.413e-5, 9.626e-5
0.030, 4.396e-5, 9.845e-5
0.025, 3.798e-5, 1.004e-4
0.020, 3.993e-5, 1.024e-4
0.015, 3.666e-5, 1.042e-4
0.010, 3.612e-5, 1.060e-4
0.005, 4.165e-5, 1.081e-4
0.000, 3.761e-5, 1.100e-4
-0.005, 3.270e-5, 1.116e-4
-0.010, 3.813e-5, 1.135e-4
-0.015, 4.333e-5, 1.157e-4
-0.020, 4.718e-5, 1.180e-4
-0.025, 4.890e-5, 1.205e-4
-0.030, 4.695e-5, 1.228e-4
-0.035, 3.722e-5, 1.247e-4
-0.040, 4.191e-5, 1.268e-4
-0.045, 4.410e-5, 1.290e-4
-0.050, 4.257e-5, 1.311e-4
-0.055, 4.000e-5, 1.331e-4
-0.060, 5.201e-5, 1.357e-4
-0.065, 4.065e-5, 1.377e-4
-0.070, 3.025e-5, 1.392e-4
-0.075, 3.061e-5, 1.408e-4
-0.080, 3.906e-5, 1.427e-4
-0.085, 3.576e-5, 1.445e-4
-0.090, 3.086e-5, 1.461e-4
-0.095, 3.454e-5, 1.478e-4
-0.100, 3.726e-5, 1.497e-4
-0.105, 4.611e-5, 1.520e-4
-0.110, 3.959e-5, 1.539e-4
-0.115, 3.895e-5, 1.559e-4
-0.120, 4.035e-5, 1.579e-4
-0.125, 4.178e-5, 1.600e-4
-0.130, 3.614e-5, 1.618e-4
-0.135, 4.233e-5, 1.639e-4
-0.140, 4.718e-5, 1.663e-4
-0.145, 4.484e-5, 1.685e-4
-0.150, 4.773e-5, 1.709e-4
-0.155, 5.327e-5, 1.736e-4
-0.160, 4.387e-5, 1.758e-4
-0.165, 4.689e-5, 1.781e-4
-0.170, 3.968e-5, 1.801e-4
-0.175, 4.227e-5, 1.822e-4
-0.180, 4.040e-5, 1.842e-4
-0.185, 3.651e-5, 1.860e-4
-0.190, 4.750e-5, 1.884e-4
-0.195, 4.662e-5, 1.908e-4
-0.200, 3.907e-5, 1.927e-4
-0.205, 3.456e-5, 1.944e-4
-0.210, 4.774e-5, 1.968e-4
-0.215, 3.720e-5, 1.987e-4
-0.220, 3.348e-5, 2.004e-4
-0.225, 3.340e-5, 2.020e-4
-0.230, 3.108e-5, 2.036e-4
-0.235, 2.790e-5, 2.050e-4
-0.240, 3.936e-5, 2.069e-4
-0.245, 5.163e-5, 2.095e-4
-0.250, 4.594e-5, 2.118e-4
-0.255, 3.952e-5, 2.138e-4
-0.260, 3.743e-5, 2.157e-4
-0.265, 3.573e-5, 2.175e-4
-0.270, 3.382e-5, 2.191e-4
-0.275, 3.283e-5, 2.208e-4
-0.280, 3.170e-5, 2.224e-4

Segment 3:
-0.275, 4.518e-5, 2.246e-4
-0.270, 4.061e-5, 2.267e-4
-0.265, 3.890e-5, 2.286e-4
-0.260, 4.257e-5, 2.307e-4
-0.255, 4.596e-5, 2.330e-4
-0.250, 4.703e-5, 2.354e-4
-0.245, 4.251e-5, 2.375e-4
-0.240, 4.655e-5, 2.398e-4
-0.235, 4.297e-5, 2.420e-4
-0.230, 4.644e-5, 2.443e-4
-0.225, 5.002e-5, 2.468e-4
-0.220, 4.145e-5, 2.489e-4
-0.215, 4.089e-5, 2.509e-4
-0.210, 3.574e-5, 2.527e-4
-0.205, 3.579e-5, 2.545e-4
-0.200, 4.726e-5, 2.569e-4
-0.195, 4.180e-5, 2.590e-4
-0.190, 3.510e-5, 2.607e-4
-0.185, 3.323e-5, 2.624e-4
-0.180, 2.674e-5, 2.637e-4
-0.175, 2.889e-5, 2.652e-4
-0.170, 2.772e-5, 2.665e-4
-0.165, 3.222e-5, 2.682e-4
-0.160, 5.076e-5, 2.707e-4
-0.155, 4.585e-5, 2.730e-4
-0.150, 4.590e-5, 2.753e-4
-0.145, 4.193e-5, 2.774e-4
-0.140, 3.805e-5, 2.793e-4
-0.135, 5.456e-5, 2.820e-4
-0.130, 4.477e-5, 2.842e-4
-0.125, 4.141e-5, 2.863e-4
-0.120, 5.065e-5, 2.888e-4
-0.115, 3.601e-5, 2.906e-4
-0.110, 3.462e-5, 2.924e-4
-0.105, 3.842e-5, 2.943e-4
-0.100, 3.432e-5, 2.960e-4
-0.095, 3.533e-5, 2.978e-4
-0.090, 3.511e-5, 2.995e-4
-0.085, 3.382e-5, 3.012e-4
-0.080, 4.365e-5, 3.034e-4
-0.075, 3.891e-5, 3.054e-4
-0.070, 3.536e-5, 3.071e-4
-0.065, 3.349e-5, 3.088e-4
-0.060, 3.450e-5, 3.105e-4
-0.055, 2.791e-5, 3.119e-4
-0.050, 3.173e-5, 3.135e-4
-0.045, 3.942e-5, 3.155e-4
-0.040, 3.650e-5, 3.173e-4
-0.035, 3.114e-5, 3.189e-4
-0.030, 3.376e-5, 3.205e-4
-0.025, 4.688e-5, 3.229e-4
-0.020, 3.709e-5, 3.247e-4
-0.015, 3.861e-5, 3.267e-4
-0.010, 4.514e-5, 3.289e-4
-0.005, 3.778e-5, 3.308e-4
-0.000, 4.151e-5, 3.329e-4
0.005, 4.562e-5, 3.352e-4
0.010, 4.502e-5, 3.374e-4
0.015, 5.197e-5, 3.400e-4
0.020, 4.176e-5, 3.421e-4
0.025, 3.471e-5, 3.438e-4
0.030, 3.943e-5, 3.458e-4
0.035, 3.791e-5, 3.477e-4
0.040, 3.708e-5, 3.496e-4
0.045, 4.375e-5, 3.518e-4
0.050, 4.236e-5, 3.539e-4
0.055, 3.828e-5, 3.558e-4
0.060, 3.266e-5, 3.574e-4
0.065, 3.607e-5, 3.592e-4
0.070, 3.179e-5, 3.608e-4
0.075, 3.678e-5, 3.627e-4
0.080, 3.662e-5, 3.645e-4
0.085, 3.884e-5, 3.664e-4
0.090, 4.090e-5, 3.685e-4
0.095, 4.544e-5, 3.707e-4
0.100, 4.041e-5, 3.728e-4
0.105, 3.640e-5, 3.746e-4
0.110, 4.144e-5, 3.767e-4
0.115, 3.399e-5, 3.784e-4
0.120, 3.147e-5, 3.799e-4
0.125, 3.792e-5, 3.818e-4
0.130, 3.481e-5, 3.836e-4
0.135, 3.457e-5, 3.853e-4
0.140, 3.897e-5, 3.872e-4
0.145, 3.868e-5, 3.892e-4
0.150, 3.513e-5, 3.909e-4
0.155, 2.899e-5, 3.924e-4
0.160, 3.583e-5, 3.942e-4
0.165, 4.023e-5, 3.962e-4
0.170, 4.174e-5, 3.983e-4
0.175, 4.006e-5, 4.003e-4
0.180, 3.434e-5, 4.020e-4
0.185, 3.382e-5, 4.037e-4
0.190, 4.100e-5, 4.057e-4
0.195, 3.704e-5, 4.076e-4
0.200, 3.152e-5, 4.092e-4
0.205, 3.383e-5, 4.109e-4
0.210, 3.443e-5, 4.126e-4
0.215, 3.684e-5, 4.144e-4
0.220, 3.769e-5, 4.163e-4
0.225, 3.041e-5, 4.178e-4
0.230, 2.488e-5, 4.191e-4
0.235, 2.485e-5, 4.203e-4
0.240, 2.892e-5, 4.218e-4
0.245, 3.131e-5, 4.233e-4
0.250, 3.619e-5, 4.251e-4
0.255, 3.918e-5, 4.271e-4
0.260, 3.334e-5, 4.288e-4
0.265, 3.266e-5, 4.304e-4
0.270, 3.137e-5, 4.320e-4
0.275, 2.752e-5, 4.333e-4
0.280, 2.647e-5, 4.347e-4
0.285, 2.730e-5, 4.360e-4
0.290, 2.859e-5, 4.375e-4
0.295, 2.776e-5, 4.388e-4
0.300, 2.827e-5, 4.403e-4
0.305, 2.550e-5, 4.415e-4
0.310, 2.261e-5, 4.427e-4
0.315, 2.062e-5, 4.437e-4
0.320, 2.129e-5, 4.448e-4
0.325, 2.119e-5, 4.458e-4
0.330, 2.171e-5, 4.469e-4
0.335, 2.191e-5, 4.480e-4
0.340, 2.320e-5, 4.492e-4
0.345, 2.235e-5, 4.503e-4
0.350, 2.204e-5, 4.514e-4
0.355, 2.146e-5, 4.524e-4
0.360, 1.982e-5, 4.534e-4
0.365, 1.876e-5, 4.544e-4
0.370, 1.785e-5, 4.553e-4
0.375, 1.753e-5, 4.561e-4
0.380, 1.611e-5, 4.570e-4
0.385, 1.495e-5, 4.577e-4
0.390, 1.367e-5, 4.584e-4
0.395, 1.355e-5, 4.591e-4
0.400, 1.441e-5, 4.598e-4
0.405, 1.365e-5, 4.605e-4
0.410, 1.291e-5, 4.611e-4
0.415, 1.279e-5, 4.617e-4
0.420, 1.200e-5, 4.623e-4
0.425, 1.102e-5, 4.629e-4
0.430, 1.023e-5, 4.634e-4
0.435, 9.523e-6, 4.639e-4
0.440, 8.686e-6, 4.643e-4
0.445, 8.173e-6, 4.647e-4
0.450, 7.722e-6, 4.651e-4
0.455, 7.080e-6, 4.655e-4
0.460, 6.980e-6, 4.658e-4
0.465, 6.803e-6, 4.662e-4
0.470, 6.343e-6, 4.665e-4
0.475, 5.853e-6, 4.668e-4
0.480, 5.382e-6, 4.670e-4
0.485, 5.003e-6, 4.673e-4
0.490, 4.579e-6, 4.675e-4
0.495, 4.248e-6, 4.677e-4
0.500, 3.892e-6, 4.679e-4
0.505, 3.621e-6, 4.681e-4
0.510, 3.298e-6, 4.683e-4
0.515, 2.987e-6, 4.684e-4
0.520, 2.728e-6, 4.686e-4
0.525, 2.444e-6, 4.687e-4
0.530, 2.167e-6, 4.688e-4
0.535, 1.938e-6, 4.689e-4
0.540, 1.704e-6, 4.690e-4
0.545, 1.479e-6, 4.690e-4
0.550, 1.258e-6, 4.691e-4
0.555, 1.069e-6, 4.692e-4
0.560, 8.903e-7, 4.692e-4
0.565, 7.348e-7, 4.692e-4
0.570, 5.790e-7, 4.693e-4
0.575, 4.332e-7, 4.693e-4
0.580, 3.033e-7, 4.693e-4
0.585, 1.786e-7, 4.693e-4
0.590, 5.337e-8, 4.693e-4
0.595, -5.788e-8, 4.693e-4
0.600, -1.674e-7, 4.693e-4
0.605, -2.570e-7, 4.693e-4
0.610, -3.407e-7, 4.693e-4
0.615, -4.148e-7, 4.693e-4
0.620, -4.889e-7, 4.692e-4
0.625, -5.543e-7, 4.692e-4
0.630, -6.156e-7, 4.692e-4
0.635, -6.708e-7, 4.691e-4
0.640, -7.296e-7, 4.691e-4
0.645, -7.755e-7, 4.691e-4
0.650, -8.259e-7, 4.690e-4
0.655, -8.662e-7, 4.690e-4
0.660, -9.084e-7, 4.689e-4
0.665, -9.459e-7, 4.689e-4
0.670, -9.781e-7, 4.688e-4
0.675, -1.004e-6, 4.688e-4
0.680, -1.032e-6, 4.687e-4
0.685, -1.053e-6, 4.687e-4
0.690, -1.072e-6, 4.686e-4
0.695, -1.091e-6, 4.686e-4
0.700, -1.111e-6, 4.685e-4
0.705, -1.127e-6, 4.685e-4
0.710, -1.147e-6, 4.684e-4
0.715, -1.165e-6, 4.683e-4
0.720, -1.183e-6, 4.683e-4
0.725, -1.204e-6, 4.682e-4
0.730, -1.219e-6, 4.682e-4
0.735, -1.246e-6, 4.681e-4
0.740, -1.267e-6, 4.680e-4
0.745, -1.284e-6, 4.680e-4
0.750, -1.303e-6, 4.679e-4
0.755, -1.314e-6, 4.678e-4
0.760, -1.331e-6, 4.678e-4
0.765, -1.342e-6, 4.677e-4
0.770, -1.355e-6, 4.676e-4
0.775, -1.365e-6, 4.676e-4
0.780, -1.376e-6, 4.675e-4
0.785, -1.388e-6, 4.674e-4
0.790, -1.404e-6, 4.674e-4
0.795, -1.421e-6, 4.673e-4
0.800, -1.437e-6, 4.672e-4
0.805, -1.455e-6, 4.672e-4
0.810, -1.463e-6, 4.671e-4
0.815, -1.503e-6, 4.670e-4
0.820, -1.515e-6, 4.669e-4
0.825, -1.532e-6, 4.669e-4
0.830, -1.552e-6, 4.668e-4
0.835, -1.565e-6, 4.667e-4
0.840, -1.584e-6, 4.666e-4
0.845, -1.603e-6, 4.665e-4
0.850, -1.619e-6, 4.665e-4
0.855, -1.629e-6, 4.664e-4
0.860, -1.651e-6, 4.663e-4
0.865, -1.668e-6, 4.662e-4
0.870, -1.689e-6, 4.661e-4
0.875, -1.710e-6, 4.660e-4
0.880, -1.737e-6, 4.660e-4
0.885, -1.756e-6, 4.659e-4
0.890, -1.783e-6, 4.658e-4
0.895, -1.805e-6, 4.657e-4
0.900, -1.828e-6, 4.656e-4
0.905, -1.852e-6, 4.655e-4
0.910, -1.873e-6, 4.654e-4
0.915, -1.880e-6, 4.653e-4
0.920, -1.931e-6, 4.652e-4
0.925, -1.930e-6, 4.651e-4
0.930, -1.952e-6, 4.650e-4
0.935, -1.961e-6, 4.649e-4
0.940, -1.982e-6, 4.648e-4
0.945, -1.998e-6, 4.647e-4
0.950, -2.017e-6, 4.646e-4
0.955, -2.030e-6, 4.645e-4
0.960, -2.046e-6, 4.644e-4
0.965, -2.072e-6, 4.643e-4
0.970, -2.097e-6, 4.642e-4
0.975, -2.114e-6, 4.641e-4
0.980, -2.134e-6, 4.640e-4
0.985, -2.154e-6, 4.639e-4
0.990, -2.172e-6, 4.638e-4
0.995, -2.189e-6, 4.637e-4
1.000, -2.208e-6, 4.636e-4
1.005, -2.219e-6, 4.635e-4
1.010, -2.232e-6, 4.633e-4
1.015, -2.251e-6, 4.632e-4
1.020, -2.261e-6, 4.631e-4
1.025, -2.275e-6, 4.630e-4
1.030, -2.286e-6, 4.629e-4
1.035, -2.300e-6, 4.628e-4
1.040, -2.316e-6, 4.627e-4
1.045, -2.330e-6, 4.625e-4
1.050, -2.348e-6, 4.624e-4
1.055, -2.361e-6, 4.623e-4
1.060, -2.378e-6, 4.622e-4
1.065, -2.393e-6, 4.621e-4
1.070, -2.404e-6, 4.619e-4
1.075, -2.414e-6, 4.618e-4
1.080, -2.424e-6, 4.617e-4
1.085, -2.433e-6, 4.616e-4
1.090, -2.449e-6, 4.615e-4
1.095, -2.435e-6, 4.613e-4
1.100, -2.467e-6, 4.612e-4
1.105, -2.473e-6, 4.611e-4
1.110, -2.481e-6, 4.610e-4
1.115, -2.495e-6, 4.608e-4
1.120, -2.504e-6, 4.607e-4
1.125, -2.509e-6, 4.606e-4
1.130, -2.510e-6, 4.605e-4
1.135, -2.535e-6, 4.603e-4
1.140, -2.548e-6, 4.602e-4
1.145, -2.561e-6, 4.601e-4
1.150, -2.290e-6, 4.600e-4

Segment 4:
1.145, -1.898e-6, 4.599e-4
1.140, -1.591e-6, 4.598e-4
1.135, -1.356e-6, 4.597e-4
1.130, -1.174e-6, 4.597e-4
1.125, -1.014e-6, 4.596e-4
1.120, -8.897e-7, 4.596e-4
1.115, -7.815e-7, 4.595e-4
1.110, -6.919e-7, 4.595e-4
1.105, -6.112e-7, 4.595e-4
1.100, -5.500e-7, 4.594e-4
1.095, -4.836e-7, 4.594e-4
1.090, -4.362e-7, 4.594e-4
1.085, -3.888e-7, 4.594e-4
1.080, -3.543e-7, 4.594e-4
1.075, -3.233e-7, 4.593e-4
1.070, -2.965e-7, 4.593e-4
1.065, -2.641e-7, 4.593e-4
1.060, -2.430e-7, 4.593e-4
1.055, -2.160e-7, 4.593e-4
1.050, -1.994e-7, 4.593e-4
1.045, -1.777e-7, 4.593e-4
1.040, -1.617e-7, 4.593e-4
1.035, -1.452e-7, 4.593e-4
1.030, -1.238e-7, 4.593e-4
1.025, -1.080e-7, 4.592e-4
1.020, -8.933e-8, 4.592e-4
1.015, -7.856e-8, 4.592e-4
1.010, -6.791e-8, 4.592e-4
1.005, -5.594e-8, 4.592e-4
1.000, -5.065e-8, 4.592e-4
0.995, -4.298e-8, 4.592e-4
0.990, -3.935e-8, 4.592e-4
0.985, -2.432e-8, 4.592e-4
0.980, -1.920e-8, 4.592e-4
0.975, -1.372e-8, 4.592e-4
0.970, -6.827e-9, 4.592e-4
0.965, 5.664e-9, 4.592e-4
0.960, 8.772e-9, 4.592e-4
0.955, 1.826e-8, 4.592e-4
0.950, 2.662e-8, 4.592e-4
0.945, 3.702e-8, 4.592e-4
0.940, 4.238e-8, 4.592e-4
0.935, 4.917e-8, 4.592e-4
0.930, 5.314e-8, 4.592e-4
0.925, 5.944e-8, 4.592e-4
0.920, 6.104e-8, 4.592e-4
0.915, 6.319e-8, 4.592e-4
0.910, 6.495e-8, 4.592e-4
0.905, 7.420e-8, 4.592e-4
0.900, 7.340e-8, 4.593e-4
0.895, 7.962e-8, 4.593e-4
0.890, 8.203e-8, 4.593e-4
0.885, 9.300e-8, 4.593e-4
0.880, 9.476e-8, 4.593e-4
0.875, 1.060e-7, 4.593e-4
0.870, 1.109e-7, 4.593e-4
0.865, 1.216e-7, 4.593e-4
0.860, 1.228e-7, 4.593e-4
0.855, 1.339e-7, 4.593e-4
0.850, 1.350e-7, 4.593e-4
0.845, 1.451e-7, 4.593e-4
0.840, 1.412e-7, 4.593e-4
0.835, 1.478e-7, 4.593e-4
0.830, 1.470e-7, 4.593e-4
0.825, 1.548e-7, 4.593e-4
0.820, 1.541e-7, 4.594e-4
0.815, 1.662e-7, 4.594e-4
0.810, 1.687e-7, 4.594e-4
0.805, 1.771e-7, 4.594e-4
0.800, 1.840e-7, 4.594e-4
0.795, 1.971e-7, 4.594e-4
0.790, 2.026e-7, 4.594e-4
0.785, 2.121e-7, 4.594e-4
0.780, 2.147e-7, 4.594e-4
0.775, 2.272e-7, 4.594e-4
0.770, 2.289e-7, 4.594e-4
0.765, 2.418e-7, 4.595e-4
0.760, 2.416e-7, 4.595e-4
0.755, 2.513e-7, 4.595e-4
0.750, 2.520e-7, 4.595e-4
0.745, 2.623e-7, 4.595e-4
0.740, 2.693e-7, 4.595e-4
0.735, 2.805e-7, 4.595e-4
0.730, 2.860e-7, 4.596e-4
0.725, 3.015e-7, 4.596e-4
0.720, 3.105e-7, 4.596e-4
0.715, 3.227e-7, 4.596e-4
0.710, 3.364e-7, 4.596e-4
0.705, 3.491e-7, 4.596e-4
0.700, 3.579e-7, 4.597e-4
0.695, 3.748e-7, 4.597e-4
0.690, 3.820e-7, 4.597e-4
0.685, 4.032e-7, 4.597e-4
0.680, 4.054e-7, 4.597e-4
0.675, 4.167e-7, 4.598e-4
0.670, 4.307e-7, 4.598e-4
0.665, 4.433e-7, 4.598e-4
0.660, 4.540e-7, 4.598e-4
0.655, 4.678e-7, 4.598e-4
0.650, 4.853e-7, 4.599e-4
0.645, 5.107e-7, 4.599e-4
0.640, 5.304e-7, 4.599e-4
0.635, 5.557e-7, 4.599e-4
0.630, 5.812e-7, 4.600e-4
0.625, 6.068e-7, 4.600e-4
0.620, 6.255e-7, 4.600e-4
0.615, 6.536e-7, 4.601e-4
0.610, 6.791e-7, 4.601e-4
0.605, 7.047e-7, 4.601e-4
0.600, 7.292e-7, 4.602e-4
0.595, 7.585e-7, 4.602e-4
0.590, 7.887e-7, 4.603e-4
0.585, 8.267e-7, 4.603e-4
0.580, 8.623e-7, 4.603e-4
0.575, 9.023e-7, 4.604e-4
0.570, 9.486e-7, 4.604e-4
0.565, 9.937e-7, 4.605e-4
0.560, 1.050e-6, 4.605e-4
0.555, 1.104e-6, 4.606e-4
0.550, 1.162e-6, 4.606e-4
0.545, 1.231e-6, 4.607e-4
0.540, 1.294e-6, 4.608e-4
0.535, 1.367e-6, 4.608e-4
0.530, 1.459e-6, 4.609e-4
0.525, 1.551e-6, 4.610e-4
0.520, 1.638e-6, 4.611e-4
0.515, 1.703e-6, 4.612e-4
0.510, 1.883e-6, 4.613e-4
0.505, 1.978e-6, 4.614e-4
0.500, 2.110e-6, 4.615e-4
0.495, 2.261e-6, 4.616e-4
0.490, 2.430e-6, 4.617e-4
0.485, 2.617e-6, 4.618e-4
0.480, 2.816e-6, 4.620e-4
0.475, 3.040e-6, 4.621e-4
0.470, 3.284e-6, 4.623e-4
0.465, 3.546e-6, 4.625e-4
0.460, 3.805e-6, 4.626e-4
0.455, 4.073e-6, 4.628e-4
0.450, 4.451e-6, 4.631e-4
0.445, 4.821e-6, 4.633e-4
0.440, 5.193e-6, 4.636e-4
0.435, 5.603e-6, 4.639e-4
0.430, 6.032e-6, 4.642e-4
0.425, 6.528e-6, 4.645e-4
0.420, 6.993e-6, 4.648e-4
0.415, 7.506e-6, 4.652e-4
0.410, 8.084e-6, 4.656e-4
0.405, 8.732e-6, 4.660e-4
0.400, 9.228e-6, 4.665e-4
0.395, 9.804e-6, 4.670e-4
0.390, 1.037e-5, 4.675e-4
0.385, 1.085e-5, 4.681e-4
0.380, 1.155e-5, 4.686e-4
0.375, 1.199e-5, 4.692e-4
0.370, 1.278e-5, 4.699e-4
0.365, 1.360e-5, 4.706e-4
0.360, 1.471e-5, 4.713e-4
0.355, 1.545e-5, 4.721e-4
0.350, 1.582e-5, 4.729e-4
0.345, 1.668e-5, 4.737e-4
0.340, 1.671e-5, 4.745e-4
0.335, 1.669e-5, 4.754e-4
0.330, 1.784e-5, 4.763e-4
0.325, 1.856e-5, 4.772e-4
0.320, 1.880e-5, 4.781e-4
0.315, 2.185e-5, 4.792e-4
0.310, 2.115e-5, 4.803e-4
0.305, 1.997e-5, 4.813e-4
0.300, 2.185e-5, 4.824e-4
0.295, 2.440e-5, 4.836e-4
0.290, 2.461e-5, 4.848e-4
0.285, 2.373e-5, 4.860e-4
0.280, 2.384e-5, 4.872e-4
0.275, 2.253e-5, 4.883e-4
0.270, 2.243e-5, 4.894e-4
0.265, 2.565e-5, 4.907e-4
0.260, 2.724e-5, 4.921e-4
0.255, 2.990e-5, 4.936e-4
0.250, 2.995e-5, 4.951e-4
0.245, 3.346e-5, 4.967e-4
0.240, 3.085e-5, 4.983e-4
0.235, 3.191e-5, 4.999e-4
0.230, 3.134e-5, 5.015e-4
0.225, 3.131e-5, 5.030e-4
0.220, 3.043e-5, 5.045e-4
0.215, 3.132e-5, 5.061e-4
0.210, 2.895e-5, 5.076e-4
0.205, 2.801e-5, 5.090e-4
0.200, 2.774e-5, 5.103e-4
0.195, 2.607e-5, 5.116e-4
0.190, 2.568e-5, 5.129e-4
0.185, 3.239e-5, 5.145e-4
0.180, 3.038e-5, 5.161e-4
0.175, 4.363e-5, 5.182e-4
0.170, 4.540e-5, 5.205e-4
0.165, 3.666e-5, 5.223e-4
0.160, 3.422e-5, 5.241e-4
0.155, 3.303e-5, 5.257e-4
0.150, 3.375e-5, 5.274e-4
0.145, 3.583e-5, 5.292e-4
0.140, 4.016e-5, 5.312e-4
0.135, 3.925e-5, 5.332e-4
0.130, 4.022e-5, 5.352e-4
0.125, 4.239e-5, 5.373e-4
0.120, 3.644e-5, 5.391e-4
0.115, 3.233e-5, 5.407e-4
0.110, 3.052e-5, 5.423e-4
0.105, 2.851e-5, 5.437e-4
0.100, 2.647e-5, 5.450e-4
0.095, 4.274e-5, 5.471e-4
0.090, 4.549e-5, 5.494e-4
0.085, 4.101e-5, 5.515e-4
0.080, 4.182e-5, 5.536e-4
0.075, 4.091e-5, 5.556e-4
0.070, 3.774e-5, 5.575e-4
0.065, 4.398e-5, 5.597e-4
0.060, 3.672e-5, 5.615e-4
0.055, 2.938e-5, 5.630e-4
0.050, 2.822e-5, 5.644e-4
0.045, 3.023e-5, 5.659e-4
0.040, 2.930e-5, 5.674e-4
0.035, 3.574e-5, 5.692e-4
0.030, 3.725e-5, 5.710e-4
0.025, 3.586e-5, 5.728e-4
0.020, 3.449e-5, 5.746e-4
0.015, 3.081e-5, 5.761e-4
0.010, 3.517e-5, 5.778e-4
0.005, 3.888e-5, 5.798e-4
0.000, 4.016e-5, 5.818e-4
-0.005, 3.496e-5, 5.835e-4
-0.010, 3.420e-5, 5.853e-4
-0.015, 3.830e-5, 5.872e-4
-0.020, 3.839e-5, 5.891e-4
-0.025, 3.702e-5, 5.909e-4
-0.030, 3.964e-5, 5.929e-4
-0.035, 4.397e-5, 5.951e-4
-0.040, 5.140e-5, 5.977e-4
-0.045, 4.301e-5, 5.998e-4
-0.050, 3.364e-5, 6.015e-4
-0.055, 4.256e-5, 6.037e-4
-0.060, 4.315e-5, 6.058e-4
-0.065, 4.349e-5, 6.080e-4
-0.070, 4.758e-5, 6.104e-4
-0.075, 4.337e-5, 6.125e-4
-0.080, 3.895e-5, 6.145e-4
-0.085, 3.327e-5, 6.161e-4
-0.090, 2.833e-5, 6.176e-4
-0.095, 3.242e-5, 6.192e-4
-0.100, 4.247e-5, 6.213e-4
-0.105, 4.439e-5, 6.235e-4
-0.110, 5.109e-5, 6.261e-4
-0.115, 5.637e-5, 6.289e-4
-0.120, 4.782e-5, 6.313e-4
-0.125, 4.225e-5, 6.334e-4
-0.130, 4.338e-5, 6.356e-4
-0.135, 3.907e-5, 6.375e-4
-0.140, 4.340e-5, 6.397e-4
-0.145, 3.845e-5, 6.416e-4
-0.150, 3.873e-5, 6.436e-4
-0.155, 3.670e-5, 6.454e-4
-0.160, 4.735e-5, 6.478e-4
-0.165, 4.083e-5, 6.498e-4
-0.170, 4.208e-5, 6.519e-4
-0.175, 4.225e-5, 6.540e-4
-0.180, 4.364e-5, 6.562e-4
-0.185, 4.243e-5, 6.583e-4
-0.190, 4.020e-5, 6.603e-4
-0.195, 3.602e-5, 6.621e-4
-0.200, 4.113e-5, 6.642e-4
-0.205, 4.046e-5, 6.662e-4
-0.210, 3.693e-5, 6.681e-4
-0.215, 3.909e-5, 6.700e-4
-0.220, 3.989e-5, 6.720e-4
-0.225, 3.879e-5, 6.739e-4
-0.230, 3.628e-5, 6.758e-4
-0.235, 3.588e-5, 6.776e-4
-0.240, 3.604e-5, 6.794e-4
-0.245, 3.813e-5, 6.813e-4
-0.250, 3.688e-5, 6.831e-4
-0.255, 4.033e-5, 6.851e-4
-0.260, 4.070e-5, 6.872e-4
-0.265, 3.585e-5, 6.889e-4
-0.270, 4.000e-5, 6.909e-4
-0.275, 3.967e-5, 6.929e-4
-0.280, 3.469e-5, 6.947e-4

Segment 5:
-0.275, 3.333e-5, 6.963e-4
-0.270, 4.031e-5, 6.983e-4
-0.265, 3.438e-5, 7.001e-4
-0.260, 3.064e-5, 7.016e-4
-0.255, 3.036e-5, 7.031e-4
-0.250, 3.749e-5, 7.050e-4
-0.245, 4.930e-5, 7.075e-4
-0.240, 3.772e-5, 7.093e-4
-0.235, 3.434e-5, 7.111e-4
-0.230, 3.162e-5, 7.126e-4
-0.225, 3.521e-5, 7.144e-4
-0.220, 2.709e-5, 7.158e-4
-0.215, 2.754e-5, 7.171e-4
-0.210, 3.380e-5, 7.188e-4
-0.205, 3.538e-5, 7.206e-4
-0.200, 4.277e-5, 7.227e-4
-0.195, 3.643e-5, 7.245e-4
-0.190, 4.232e-5, 7.267e-4
-0.185, 4.313e-5, 7.288e-4
-0.180, 4.211e-5, 7.309e-4
-0.175, 4.160e-5, 7.330e-4
-0.170, 3.892e-5, 7.350e-4
-0.165, 4.574e-5, 7.372e-4
-0.160, 4.415e-5, 7.394e-4
-0.155, 3.442e-5, 7.412e-4
-0.150, 3.018e-5, 7.427e-4
-0.145, 3.034e-5, 7.442e-4
-0.140, 3.127e-5, 7.458e-4
-0.135, 4.726e-5, 7.481e-4
-0.130, 4.392e-5, 7.503e-4
-0.125, 4.733e-5, 7.527e-4
-0.120, 4.634e-5, 7.550e-4
-0.115, 4.177e-5, 7.571e-4
-0.110, 5.071e-5, 7.596e-4
-0.105, 4.176e-5, 7.617e-4
-0.100, 4.292e-5, 7.639e-4
-0.095, 4.631e-5, 7.662e-4
-0.090, 4.434e-5, 7.684e-4
-0.085, 4.743e-5, 7.708e-4
-0.080, 4.080e-5, 7.728e-4
-0.075, 3.360e-5, 7.745e-4
-0.070, 3.089e-5, 7.760e-4
-0.065, 3.313e-5, 7.777e-4
-0.060, 5.346e-5, 7.804e-4
-0.055, 4.355e-5, 7.825e-4
-0.050, 3.610e-5, 7.843e-4
-0.045, 4.180e-5, 7.864e-4
-0.040, 4.004e-5, 7.884e-4
-0.035, 4.048e-5, 7.905e-4
-0.030, 3.998e-5, 7.925e-4
-0.025, 4.563e-5, 7.947e-4
-0.020, 4.019e-5, 7.967e-4
-0.015, 4.243e-5, 7.989e-4
-0.010, 3.475e-5, 8.006e-4
-0.005, 4.099e-5, 8.027e-4
-0.000, 4.793e-5, 8.051e-4
0.005, 4.502e-5, 8.073e-4
0.010, 3.454e-5, 8.090e-4
0.015, 2.949e-5, 8.105e-4
0.020, 2.689e-5, 8.118e-4
0.025, 3.768e-5, 8.137e-4
0.030, 4.078e-5, 8.158e-4
0.035, 3.283e-5, 8.174e-4
0.040, 4.666e-5, 8.197e-4
0.045, 3.861e-5, 8.217e-4
0.050, 3.656e-5, 8.235e-4
0.055, 2.705e-5, 8.249e-4
0.060, 2.822e-5, 8.263e-4
0.065, 3.430e-5, 8.280e-4
0.070, 3.520e-5, 8.297e-4
0.075, 3.827e-5, 8.317e-4
0.080, 4.117e-5, 8.337e-4
0.085, 4.185e-5, 8.358e-4
0.090, 3.169e-5, 8.374e-4
0.095, 3.199e-5, 8.390e-4
0.100, 3.807e-5, 8.409e-4
0.105, 4.491e-5, 8.431e-4
0.110, 4.588e-5, 8.454e-4
0.115, 4.062e-5, 8.475e-4
0.120, 4.126e-5, 8.495e-4
0.125, 5.075e-5, 8.521e-4
0.130, 3.876e-5, 8.540e-4
0.135, 3.779e-5, 8.559e-4
0.140, 3.104e-5, 8.574e-4
0.145, 3.262e-5, 8.591e-4
0.150, 4.287e-5, 8.612e-4
0.155, 3.622e-5, 8.630e-4
0.160, 3.570e-5, 8.648e-4
0.165, 3.826e-5, 8.667e-4
0.170, 3.315e-5, 8.684e-4
0.175, 3.618e-5, 8.702e-4
0.180, 4.282e-5, 8.723e-4
0.185, 4.425e-5, 8.746e-4
0.190, 4.042e-5, 8.766e-4
0.195, 4.503e-5, 8.788e-4
0.200, 3.819e-5, 8.807e-4
0.205, 3.089e-5, 8.823e-4
0.210, 2.877e-5, 8.837e-4
0.215, 3.375e-5, 8.854e-4
0.220, 3.280e-5, 8.870e-4
0.225, 3.380e-5, 8.887e-4
0.230, 3.785e-5, 8.906e-4
0.235, 3.498e-5, 8.924e-4
0.240, 2.868e-5, 8.938e-4
0.245, 2.859e-5, 8.952e-4
0.250, 2.849e-5, 8.967e-4
0.255, 3.179e-5, 8.983e-4
0.260, 2.945e-5, 8.997e-4
0.265, 3.488e-5, 9.015e-4
0.270, 3.748e-5, 9.033e-4
0.275, 3.813e-5, 9.052e-4
0.280, 2.999e-5, 9.067e-4
0.285, 2.560e-5, 9.080e-4
0.290, 2.570e-5, 9.093e-4
0.295, 2.720e-5, 9.107e-4
0.300, 2.567e-5, 9.120e-4
0.305, 2.278e-5, 9.131e-4
0.310, 2.486e-5, 9.143e-4
0.315, 2.483e-5, 9.156e-4
0.320, 2.424e-5, 9.168e-4
0.325, 2.432e-5, 9.180e-4
0.330, 2.657e-5, 9.193e-4
0.335, 2.625e-5, 9.207e-4
0.340, 2.667e-5, 9.220e-4
0.345, 2.352e-5, 9.232e-4
0.350, 2.150e-5, 9.242e-4
0.355, 2.005e-5, 9.252e-4
0.360, 1.858e-5, 9.262e-4
0.365, 1.883e-5, 9.271e-4
0.370, 1.813e-5, 9.280e-4
0.375, 1.846e-5, 9.289e-4
0.380, 1.827e-5, 9.299e-4
0.385, 1.766e-5, 9.307e-4
0.390, 1.737e-5, 9.316e-4
0.395, 1.654e-5, 9.324e-4
0.400, 1.526e-5, 9.332e-4
0.405, 1.505e-5, 9.339e-4
0.410, 1.416e-5, 9.347e-4
0.415, 1.352e-5, 9.353e-4
0.420, 1.234e-5, 9.359e-4
0.425, 1.124e-5, 9.365e-4
0.430, 1.082e-5, 9.371e-4
0.435, 9.854e-6, 9.375e-4
0.440, 9.162e-6, 9.380e-4
0.445, 8.866e-6, 9.384e-4
0.450, 8.225e-6, 9.389e-4
0.455, 7.715e-6, 9.392e-4
0.460, 7.197e-6, 9.396e-4
0.465, 6.746e-6, 9.399e-4
0.470, 6.407e-6, 9.403e-4
0.475, 6.085e-6, 9.406e-4
0.480, 5.544e-6, 9.408e-4
0.485, 5.083e-6, 9.411e-4
0.490, 4.645e-6, 9.413e-4
0.495, 4.251e-6, 9.415e-4
0.500, 3.903e-6, 9.417e-4
0.505, 3.563e-6, 9.419e-4
0.510, 3.276e-6, 9.421e-4
0.515, 2.937e-6, 9.422e-4
0.520, 2.651e-6, 9.424e-4
0.525, 2.367e-6, 9.425e-4
0.530, 2.112e-6, 9.426e-4
0.535, 1.871e-6, 9.427e-4
0.540, 1.620e-6, 9.428e-4
0.545, 1.392e-6, 9.428e-4
0.550, 1.194e-6, 9.429e-4
0.555, 1.016e-6, 9.429e-4
0.560, 8.323e-7, 9.430e-4
0.565, 6.669e-7, 9.430e-4
0.570, 5.198e-7, 9.430e-4
0.575, 3.754e-7, 9.431e-4
0.580, 2.393e-7, 9.431e-4
0.585, 1.105e-7, 9.431e-4
0.590, -1.117e-8, 9.431e-4
0.595, -1.321e-7, 9.431e-4
0.600, -2.326e-7, 9.431e-4
0.605, -3.238e-7, 9.430e-4
0.610, -4.093e-7, 9.430e-4
0.615, -4.841e-7, 9.430e-4
0.620, -5.497e-7, 9.430e-4
0.625, -6.065e-7, 9.429e-4
0.630, -6.633e-7, 9.429e-4
0.635, -7.100e-7, 9.429e-4
0.640, -7.604e-7, 9.428e-4
0.645, -7.971e-7, 9.428e-4
0.650, -8.423e-7, 9.427e-4
0.655, -8.786e-7, 9.427e-4
0.660, -9.220e-7, 9.427e-4
0.665, -9.505e-7, 9.426e-4
0.670, -9.869e-7, 9.426e-4
0.675, -1.016e-6, 9.425e-4
0.680, -1.053e-6, 9.425e-4
0.685, -1.065e-6, 9.424e-4
0.690, -1.094e-6, 9.423e-4
0.695, -1.106e-6, 9.423e-4
0.700, -1.129e-6, 9.422e-4
0.705, -1.137e-6, 9.422e-4
0.710, -1.154e-6, 9.421e-4
0.715, -1.165e-6, 9.421e-4
0.720, -1.182e-6, 9.420e-4
0.725, -1.198e-6, 9.419e-4
0.730, -1.214e-6, 9.419e-4
0.735, -1.219e-6, 9.418e-4
0.740, -1.258e-6, 9.418e-4
0.745, -1.269e-6, 9.417e-4
0.750, -1.289e-6, 9.416e-4
0.755, -1.309e-6, 9.416e-4
0.760, -1.322e-6, 9.415e-4
0.765, -1.337e-6, 9.414e-4
0.770, -1.349e-6, 9.414e-4
0.775, -1.362e-6, 9.413e-4
0.780, -1.377e-6, 9.412e-4
0.785, -1.382e-6, 9.412e-4
0.790, -1.393e-6, 9.411e-4
0.795, -1.406e-6, 9.410e-4
0.800, -1.421e-6, 9.409e-4
0.805, -1.431e-6, 9.409e-4
0.810, -1.447e-6, 9.408e-4
0.815, -1.466e-6, 9.407e-4
0.820, -1.485e-6, 9.407e-4
0.825, -1.503e-6, 9.406e-4
0.830, -1.529e-6, 9.405e-4
0.835, -1.542e-6, 9.404e-4
0.840, -1.564e-6, 9.403e-4
0.845, -1.584e-6, 9.403e-4
0.850, -1.600e-6, 9.402e-4
0.855, -1.613e-6, 9.401e-4
0.860, -1.638e-6, 9.400e-4
0.865, -1.646e-6, 9.399e-4
0.870, -1.661e-6, 9.399e-4
0.875, -1.680e-6, 9.398e-4
0.880, -1.693e-6, 9.397e-4
0.885, -1.714e-6, 9.396e-4
0.890, -1.738e-6, 9.395e-4
0.895, -1.761e-6, 9.394e-4
0.900, -1.781e-6, 9.393e-4
0.905, -1.803e-6, 9.393e-4
0.910, -1.827e-6, 9.392e-4
0.915, -1.837e-6, 9.391e-4
0.920, -1.867e-6, 9.390e-4
0.925, -1.882e-6, 9.389e-4
0.930, -1.899e-6, 9.388e-4
0.935, -1.908e-6, 9.387e-4
0.940, -1.930e-6, 9.386e-4
0.945, -1.933e-6, 9.385e-4
0.950, -1.950e-6, 9.384e-4
0.955, -1.964e-6, 9.383e-4
0.960, -1.975e-6, 9.382e-4
0.965, -1.988e-6, 9.381e-4
0.970, -2.007e-6, 9.380e-4
0.975, -2.015e-6, 9.379e-4
0.980, -2.029e-6, 9.378e-4
0.985, -2.049e-6, 9.377e-4
0.990, -2.070e-6, 9.376e-4
0.995, -2.083e-6, 9.375e-4
1.000, -2.084e-6, 9.374e-4
1.005, -2.100e-6, 9.373e-4
1.010, -2.111e-6, 9.372e-4
1.015, -2.126e-6, 9.371e-4
1.020, -2.129e-6, 9.370e-4
1.025, -2.144e-6, 9.369e-4
1.030, -2.154e-6, 9.368e-4
1.035, -2.160e-6, 9.366e-4
1.040, -2.166e-6, 9.365e-4
1.045, -2.176e-6, 9.364e-4
1.050, -2.186e-6, 9.363e-4
1.055, -2.196e-6, 9.362e-4
1.060, -2.208e-6, 9.361e-4
1.065, -2.218e-6, 9.360e-4
1.070, -2.229e-6, 9.359e-4
1.075, -2.237e-6, 9.358e-4
1.080, -2.251e-6, 9.356e-4
1.085, -2.258e-6, 9.355e-4
1.090, -2.270e-6, 9.354e-4
1.095, -2.276e-6, 9.353e-4
1.100, -2.282e-6, 9.352e-4
1.105, -2.284e-6, 9.351e-4
1.110, -2.294e-6, 9.350e-4
1.115, -2.300e-6, 9.349e-4
1.120, -2.309e-6, 9.347e-4
1.125, -2.310e-6, 9.346e-4
1.130, -2.321e-6, 9.345e-4
1.135, -2.333e-6, 9.344e-4
1.140, -2.350e-6, 9.343e-4
1.145, -2.362e-6, 9.342e-4
1.150, -2.118e-6, 9.340e-4

Segment 6:
1.145, -1.714e-6, 9.340e-4
1.140, -1.439e-6, 9.339e-4
1.135, -1.225e-6, 9.338e-4
1.130, -1.057e-6, 9.338e-4
1.125, -9.170e-7, 9.337e-4
1.120, -8.022e-7, 9.337e-4
1.115, -7.031e-7, 9.337e-4
1.110, -6.216e-7, 9.336e-4
1.105, -5.401e-7, 9.336e-4
1.100, -4.865e-7, 9.336e-4
1.095, -4.322e-7, 9.335e-4
1.090, -3.860e-7, 9.335e-4
1.085, -3.476e-7, 9.335e-4
1.080, -3.133e-7, 9.335e-4
1.075, -2.791e-7, 9.335e-4
1.070, -2.611e-7, 9.335e-4
1.065, -2.306e-7, 9.335e-4
1.060, -2.143e-7, 9.334e-4
1.055, -1.864e-7, 9.334e-4
1.050, -1.730e-7, 9.334e-4
1.045, -1.535e-7, 9.334e-4
1.040, -1.381e-7, 9.334e-4
1.035, -1.232e-7, 9.334e-4
1.030, -1.118e-7, 9.334e-4
1.025, -9.301e-8, 9.334e-4
1.020, -7.664e-8, 9.334e-4
1.015, -5.917e-8, 9.334e-4
1.010, -5.092e-8, 9.334e-4
1.005, -3.464e-8, 9.334e-4
1.000, -3.036e-8, 9.334e-4
0.995, -2.228e-8, 9.334e-4
0.990, -2.310e-8, 9.334e-4
0.985, -1.339e-8, 9.334e-4
0.980, -8.181e-9, 9.334e-4
0.975, 3.213e-9, 9.334e-4
0.970, 1.338e-9, 9.334e-4
0.965, 1.204e-8, 9.334e-4
0.960, 1.510e-8, 9.334e-4
0.955, 2.673e-8, 9.334e-4
0.950, 3.286e-8, 9.334e-4
0.945, 4.333e-8, 9.334e-4
0.940, 4.770e-8, 9.334e-4
0.935, 5.633e-8, 9.334e-4
0.930, 6.361e-8, 9.334e-4
0.925, 7.219e-8, 9.334e-4
0.920, 7.070e-8, 9.334e-4
0.915, 7.538e-8, 9.334e-4
0.910, 7.198e-8, 9.334e-4
0.905, 7.896e-8, 9.334e-4
0.900, 8.230e-8, 9.334e-4
0.895, 8.824e-8, 9.334e-4
0.890, 9.107e-8, 9.334e-4
0.885, 9.616e-8, 9.334e-4
0.880, 1.032e-7, 9.334e-4
0.875, 1.134e-7, 9.334e-4
0.870, 1.194e-7, 9.335e-4
0.865, 1.279e-7, 9.335e-4
0.860, 1.294e-7, 9.335e-4
0.855, 1.420e-7, 9.335e-4
0.850, 1.438e-7, 9.335e-4
0.845, 1.505e-7, 9.335e-4
0.840, 1.521e-7, 9.335e-4
0.835, 1.580e-7, 9.335e-4
0.830, 1.614e-7, 9.335e-4
0.825, 1.610e-7, 9.335e-4
0.820, 1.643e-7, 9.335e-4
0.815, 1.668e-7, 9.335e-4
0.810, 1.740e-7, 9.335e-4
0.805, 1.823e-7, 9.336e-4
0.800, 1.910e-7, 9.336e-4
0.795, 2.030e-7, 9.336e-4
0.790, 2.106e-7, 9.336e-4
0.785, 2.204e-7, 9.336e-4
0.780, 2.254e-7, 9.336e-4
0.775, 2.407e-7, 9.336e-4
0.770, 2.426e-7, 9.336e-4
0.765, 2.532e-7, 9.336e-4
0.760, 2.533e-7, 9.337e-4
0.755, 2.632e-7, 9.337e-4
0.750, 2.647e-7, 9.337e-4
0.745, 2.691e-7, 9.337e-4
0.740, 2.786e-7, 9.337e-4
0.735, 2.870e-7, 9.337e-4
0.730, 2.922e-7, 9.337e-4
0.725, 3.046e-7, 9.338e-4
0.720, 3.142e-7, 9.338e-4
0.715, 3.287e-7, 9.338e-4
0.710, 3.403e-7, 9.338e-4
0.705, 3.580e-7, 9.338e-4
0.700, 3.701e-7, 9.338e-4
0.695, 3.823e-7, 9.339e-4
0.690, 3.946e-7, 9.339e-4
0.685, 4.121e-7, 9.339e-4
0.680, 4.149e-7, 9.339e-4
0.675, 4.301e-7, 9.339e-4
0.670, 4.424e-7, 9.340e-4
0.665, 4.534e-7, 9.340e-4
0.660, 4.699e-7, 9.340e-4
0.655, 4.880e-7, 9.340e-4
0.650, 5.012e-7, 9.341e-4
0.645, 5.228e-7, 9.341e-4
0.640, 5.464e-7, 9.341e-4
0.635, 5.688e-7, 9.341e-4
0.630, 5.939e-7, 9.342e-4
0.625, 6.271e-7, 9.342e-4
0.620, 6.488e-7, 9.342e-4
0.615, 6.706e-7, 9.343e-4
0.610, 7.007e-7, 9.343e-4
0.605, 7.248e-7, 9.343e-4
0.600, 7.529e-7, 9.344e-4
0.595, 7.812e-7, 9.344e-4
0.590, 8.104e-7, 9.345e-4
0.585, 8.484e-7, 9.345e-4
0.580, 8.828e-7, 9.345e-4
0.575, 9.289e-7, 9.346e-4
0.570, 9.736e-7, 9.346e-4
0.565, 1.024e-6, 9.347e-4
0.560, 1.074e-6, 9.347e-4
0.555, 1.132e-6, 9.348e-4
0.550, 1.198e-6, 9.349e-4
0.545, 1.262e-6, 9.349e-4
0.540, 1.315e-6, 9.350e-4
0.535, 1.427e-6, 9.351e-4
0.530, 1.513e-6, 9.351e-4
0.525, 1.599e-6, 9.352e-4
0.520, 1.695e-6, 9.353e-4
0.515, 1.797e-6, 9.354e-4
0.510, 1.910e-6, 9.355e-4
0.505, 2.040e-6, 9.356e-4
0.500, 2.180e-6, 9.357e-4
0.495, 2.346e-6, 9.358e-4
0.490, 2.517e-6, 9.359e-4
0.485, 2.721e-6, 9.361e-4
0.480, 2.931e-6, 9.362e-4
0.475, 3.173e-6, 9.364e-4
0.470, 3.425e-6, 9.365e-4
0.465, 3.705e-6, 9.367e-4
0.460, 4.002e-6, 9.369e-4
0.455, 4.322e-6, 9.372e-4
0.450, 4.690e-6, 9.374e-4
0.445, 5.064e-6, 9.376e-4
0.440, 5.457e-6, 9.379e-4
0.435, 5.904e-6, 9.382e-4
0.430, 6.388e-6, 9.385e-4
0.425, 6.881e-6, 9.389e-4
0.420, 7.366e-6, 9.392e-4
0.415, 7.887e-6, 9.396e-4
0.410, 8.478e-6, 9.401e-4
0.405, 9.075e-6, 9.405e-4
0.400, 9.764e-6, 9.410e-4
0.395, 1.037e-5, 9.415e-4
0.390, 1.105e-5, 9.421e-4
0.385, 1.175e-5, 9.427e-4
0.380, 1.234e-5, 9.433e-4
0.375, 1.321e-5, 9.439e-4
0.370, 1.382e-5, 9.446e-4
0.365, 1.455e-5, 9.454e-4
0.360, 1.548e-5, 9.461e-4
0.355, 1.591e-5, 9.469e-4
0.350, 1.629e-5, 9.477e-4
0.345, 1.652e-5, 9.486e-4
0.340, 1.751e-5, 9.494e-4
0.335, 1.764e-5, 9.503e-4
0.330, 1.971e-5, 9.513e-4
0.325, 2.230e-5, 9.524e-4
0.320, 2.210e-5, 9.535e-4
0.315, 2.215e-5, 9.546e-4
0.310, 2.195e-5, 9.557e-4
0.305, 2.308e-5, 9.569e-4
0.300, 2.401e-5, 9.581e-4
0.295, 2.517e-5, 9.593e-4
0.290, 2.730e-5, 9.607e-4
0.285, 2.655e-5, 9.620e-4
0.280, 2.644e-5, 9.634e-4
0.275, 2.552e-5, 9.646e-4
0.270, 2.468e-5, 9.659e-4
0.265, 2.501e-5, 9.671e-4
0.260, 2.626e-5, 9.684e-4
0.255, 2.659e-5, 9.698e-4
0.250, 2.732e-5, 9.711e-4
0.245, 2.885e-5, 9.726e-4
0.240, 3.093e-5, 9.741e-4
0.235, 2.722e-5, 9.755e-4
0.230, 2.615e-5, 9.768e-4
0.225, 3.167e-5, 9.784e-4
0.220, 3.202e-5, 9.800e-4
0.215, 3.166e-5, 9.816e-4
0.210, 3.398e-5, 9.833e-4
0.205, 3.250e-5, 9.849e-4
0.200, 3.373e-5, 9.866e-4
0.195, 3.437e-5, 9.883e-4
0.190, 3.671e-5, 9.901e-4
0.185, 4.346e-5, 9.923e-4
0.180, 3.875e-5, 9.942e-4
0.175, 3.981e-5, 9.962e-4
0.170, 3.637e-5, 9.980e-4
0.165, 3.818e-5, 9.999e-4
0.160, 4.285e-5, 1.002e-3
0.155, 4.036e-5, 1.004e-3
0.150, 4.440e-5, 1.006e-3
0.145, 3.688e-5, 1.008e-3
0.140, 3.658e-5, 1.010e-3
0.135, 3.869e-5, 1.012e-3
0.130, 3.929e-5, 1.014e-3
0.125, 3.537e-5, 1.016e-3
0.120, 3.016e-5, 1.017e-3
0.115, 2.732e-5, 1.019e-3
0.110, 2.736e-5, 1.020e-3
0.105, 3.476e-5, 1.022e-3
0.100, 3.963e-5, 1.024e-3
0.095, 4.380e-5, 1.026e-3
0.090, 3.688e-5, 1.028e-3
0.085, 4.155e-5, 1.030e-3
0.080, 5.004e-5, 1.032e-3
0.075, 5.020e-5, 1.035e-3
0.070, 4.273e-5, 1.037e-3
0.065, 3.617e-5, 1.039e-3
0.060, 3.692e-5, 1.041e-3
0.055, 3.964e-5, 1.043e-3
0.050, 3.808e-5, 1.044e-3
0.045, 4.009e-5, 1.046e-3
0.040, 4.610e-5, 1.049e-3
0.035, 4.352e-5, 1.051e-3
0.030, 3.486e-5, 1.053e-3
0.025, 2.885e-5, 1.054e-3
0.020, 3.181e-5, 1.056e-3
0.015, 3.694e-5, 1.058e-3
0.010, 3.379e-5, 1.059e-3
0.005, 3.704e-5, 1.061e-3
0.000, 3.996e-5, 1.063e-3
-0.005, 4.111e-5, 1.065e-3
-0.010, 3.912e-5, 1.067e-3
-0.015, 3.614e-5, 1.069e-3
-0.020, 3.354e-5, 1.071e-3
-0.025, 3.834e-5, 1.072e-3
-0.030, 4.325e-5, 1.075e-3
-0.035, 4.586e-5, 1.077e-3
-0.040, 4.275e-5, 1.079e-3
-0.045, 4.135e-5, 1.081e-3
-0.050, 4.210e-5, 1.083e-3
-0.055, 3.736e-5, 1.085e-3
-0.060, 4.393e-5, 1.087e-3
-0.065, 4.939e-5, 1.090e-3
-0.070, 4.017e-5, 1.092e-3
-0.075, 4.752e-5, 1.094e-3
-0.080, 3.901e-5, 1.096e-3
-0.085, 4.864e-5, 1.099e-3
-0.090, 5.671e-5, 1.101e-3
-0.095, 4.243e-5, 1.104e-3
-0.100, 3.830e-5, 1.105e-3
-0.105, 4.603e-5, 1.108e-3
-0.110, 4.585e-5, 1.110e-3
-0.115, 4.223e-5, 1.112e-3
-0.120, 4.401e-5, 1.114e-3
-0.125, 3.845e-5, 1.116e-3
-0.130, 3.291e-5, 1.118e-3
-0.135, 4.105e-5, 1.120e-3
-0.140, 5.583e-5, 1.123e-3
-0.145, 5.878e-5, 1.126e-3
-0.150, 4.448e-5, 1.128e-3
-0.155, 4.219e-5, 1.130e-3
-0.160, 5.115e-5, 1.133e-3
-0.165, 5.347e-5, 1.135e-3
-0.170, 5.052e-5, 1.138e-3
-0.175, 5.261e-5, 1.140e-3
-0.180, 4.976e-5, 1.143e-3
-0.185, 4.293e-5, 1.145e-3
-0.190, 3.974e-5, 1.147e-3
-0.195, 3.494e-5, 1.149e-3
-0.200, 3.542e-5, 1.151e-3
-0.205, 4.052e-5, 1.153e-3
-0.210, 4.058e-5, 1.155e-3
-0.215, 3.588e-5, 1.156e-3
-0.220, 4.198e-5, 1.158e-3
-0.225, 5.084e-5, 1.161e-3
-0.230, 5.830e-5, 1.164e-3
-0.235, 4.394e-5, 1.166e-3
-0.240, 3.581e-5, 1.168e-3
-0.245, 3.190e-5, 1.170e-3
-0.250, 3.722e-5, 1.171e-3
-0.255, 4.647e-5, 1.174e-3
-0.260, 4.682e-5, 1.176e-3
-0.265, 4.987e-5, 1.179e-3
-0.270, 3.941e-5, 1.181e-3
-0.275, 3.616e-5, 1.182e-3
-0.280, 2.921e-5, 1.184e-3

Segment 7:
-0.275, 4.342e-5, 1.186e-3
-0.270, 4.277e-5, 1.188e-3
-0.265, 3.681e-5, 1.190e-3
-0.260, 4.782e-5, 1.192e-3
-0.255, 3.227e-5, 1.194e-3
-0.250, 3.071e-5, 1.195e-3
-0.245, 3.828e-5, 1.197e-3
-0.240, 4.246e-5, 1.200e-3
-0.235, 3.705e-5, 1.201e-3
-0.230, 3.392e-5, 1.203e-3
-0.225, 3.161e-5, 1.205e-3
-0.220, 4.121e-5, 1.207e-3
-0.215, 4.030e-5, 1.209e-3
-0.210, 3.664e-5, 1.211e-3
-0.205, 4.620e-5, 1.213e-3
-0.200, 4.301e-5, 1.215e-3
-0.195, 4.713e-5, 1.217e-3
-0.190, 4.806e-5, 1.220e-3
-0.185, 3.954e-5, 1.222e-3
-0.180, 3.900e-5, 1.224e-3
-0.175, 4.650e-5, 1.226e-3
-0.170, 4.374e-5, 1.228e-3
-0.165, 3.297e-5, 1.230e-3
-0.160, 3.924e-5, 1.232e-3
-0.155, 4.590e-5, 1.234e-3
-0.150, 3.853e-5, 1.236e-3
-0.145, 3.320e-5, 1.238e-3
-0.140, 3.199e-5, 1.239e-3
-0.135, 2.992e-5, 1.241e-3
-0.130, 3.668e-5, 1.243e-3
-0.125, 3.712e-5, 1.244e-3
-0.120, 3.290e-5, 1.246e-3
-0.115, 3.933e-5, 1.248e-3
-0.110, 4.032e-5, 1.250e-3
-0.105, 4.958e-5, 1.253e-3
-0.100, 5.255e-5, 1.255e-3
-0.095, 4.292e-5, 1.257e-3
-0.090, 4.797e-5, 1.260e-3
-0.085, 4.156e-5, 1.262e-3
-0.080, 3.584e-5, 1.264e-3
-0.075, 2.990e-5, 1.265e-3
-0.070, 3.404e-5, 1.267e-3
-0.065, 3.875e-5, 1.269e-3
-0.060, 5.667e-5, 1.272e-3
-0.055, 4.147e-5, 1.274e-3
-0.050, 4.223e-5, 1.276e-3
-0.045, 5.617e-5, 1.279e-3
-0.040, 5.150e-5, 1.281e-3
-0.035, 4.116e-5, 1.283e-3
-0.030, 3.750e-5, 1.285e-3
-0.025, 3.723e-5, 1.287e-3
-0.020, 4.200e-5, 1.289e-3
-0.015, 4.135e-5, 1.291e-3
-0.010, 3.901e-5, 1.293e-3
-0.005, 4.159e-5, 1.295e-3
-0.000, 4.852e-5, 1.298e-3
0.005, 4.626e-5, 1.300e-3
0.010, 3.901e-5, 1.302e-3
0.015, 3.839e-5, 1.304e-3
0.020, 4.198e-5, 1.306e-3
0.025, 3.398e-5, 1.308e-3
0.030, 3.826e-5, 1.309e-3
0.035, 4.683e-5, 1.312e-3
0.040, 4.593e-5, 1.314e-3
0.045, 4.523e-5, 1.316e-3
0.050, 4.504e-5, 1.319e-3
0.055, 4.480e-5, 1.321e-3
0.060, 3.452e-5, 1.323e-3
0.065, 3.570e-5, 1.324e-3
0.070, 4.624e-5, 1.327e-3
0.075, 4.017e-5, 1.329e-3
0.080, 3.926e-5, 1.331e-3
0.085, 3.817e-5, 1.333e-3
0.090, 3.168e-5, 1.334e-3
0.095, 3.131e-5, 1.336e-3
0.100, 3.549e-5, 1.338e-3
0.105, 4.296e-5, 1.340e-3
0.110, 3.650e-5, 1.341e-3
0.115, 3.220e-5, 1.343e-3
0.120, 4.518e-5, 1.345e-3
0.125, 3.639e-5, 1.347e-3
0.130, 4.544e-5, 1.349e-3
0.135, 3.913e-5, 1.351e-3
0.140, 3.873e-5, 1.353e-3
0.145, 4.889e-5, 1.356e-3
0.150, 4.179e-5, 1.358e-3
0.155, 3.952e-5, 1.360e-3
0.160, 3.528e-5, 1.362e-3
0.165, 4.022e-5, 1.364e-3
0.170, 3.656e-5, 1.365e-3
0.175, 3.182e-5, 1.367e-3
0.180, 3.367e-5, 1.369e-3
0.185, 2.749e-5, 1.370e-3
0.190, 3.096e-5, 1.372e-3
0.195, 3.935e-5, 1.374e-3
0.200, 4.287e-5, 1.376e-3
0.205, 4.246e-5, 1.378e-3
0.210, 3.768e-5, 1.380e-3
0.215, 3.310e-5, 1.381e-3
0.220, 3.879e-5, 1.383e-3
0.225, 3.208e-5, 1.385e-3
0.230, 3.802e-5, 1.387e-3
0.235, 3.064e-5, 1.388e-3
0.240, 3.453e-5, 1.390e-3
0.245, 3.472e-5, 1.392e-3
0.250, 3.329e-5, 1.394e-3
0.255, 3.315e-5, 1.395e-3
0.260, 3.342e-5, 1.397e-3
0.265, 3.147e-5, 1.398e-3
0.270, 3.088e-5, 1.400e-3
0.275, 3.025e-5, 1.401e-3
0.280, 2.957e-5, 1.403e-3
0.285, 3.381e-5, 1.405e-3
0.290, 3.328e-5, 1.406e-3
0.295, 2.781e-5, 1.408e-3
0.300, 2.461e-5, 1.409e-3
0.305, 2.863e-5, 1.410e-3
0.310, 2.969e-5, 1.412e-3
0.315, 2.601e-5, 1.413e-3
0.320, 2.354e-5, 1.414e-3
0.325, 2.511e-5, 1.416e-3
0.330, 2.224e-5, 1.417e-3
0.335, 2.209e-5, 1.418e-3
0.340, 2.027e-5, 1.419e-3
0.345, 1.839e-5, 1.420e-3
0.350, 1.781e-5, 1.421e-3
0.355, 2.003e-5, 1.422e-3
0.360, 2.008e-5, 1.423e-3
0.365, 2.124e-5, 1.424e-3
0.370, 1.965e-5, 1.425e-3
0.375, 1.821e-5, 1.426e-3
0.380, 1.687e-5, 1.426e-3
0.385, 1.599e-5, 1.427e-3
0.390, 1.505e-5, 1.428e-3
0.395, 1.374e-5, 1.429e-3
0.400, 1.304e-5, 1.429e-3
0.405, 1.496e-5, 1.430e-3
0.410, 1.487e-5, 1.431e-3
0.415, 1.356e-5, 1.431e-3
0.420, 1.221e-5, 1.432e-3
0.425, 1.111e-5, 1.433e-3
0.430, 1.063e-5, 1.433e-3
0.435, 1.015e-5, 1.434e-3
0.440, 9.954e-6, 1.434e-3
0.445, 9.564e-6, 1.435e-3
0.450, 9.010e-6, 1.435e-3
0.455, 8.487e-6, 1.436e-3
0.460, 7.870e-6, 1.436e-3
0.465, 7.090e-6, 1.436e-3
0.470, 6.452e-6, 1.437e-3
0.475, 5.904e-6, 1.437e-3
0.480, 5.462e-6, 1.437e-3
0.485, 5.035e-6, 1.437e-3
0.490, 4.699e-6, 1.438e-3
0.495, 4.351e-6, 1.438e-3
0.500, 4.056e-6, 1.438e-3
0.505, 3.721e-6, 1.438e-3
0.510, 3.422e-6, 1.438e-3
0.515, 3.089e-6, 1.439e-3
0.520, 2.725e-6, 1.439e-3
0.525, 2.411e-6, 1.439e-3
0.530, 2.127e-6, 1.439e-3
0.535, 1.881e-6, 1.439e-3
0.540, 1.645e-6, 1.439e-3
0.545, 1.404e-6, 1.439e-3
0.550, 1.198e-6, 1.439e-3
0.555, 1.001e-6, 1.439e-3
0.560, 8.167e-7, 1.439e-3
0.565, 6.470e-7, 1.439e-3
0.570, 4.963e-7, 1.439e-3
0.575, 3.551e-7, 1.439e-3
0.580, 2.140e-7, 1.439e-3
0.585, 8.984e-8, 1.439e-3
0.590, -3.344e-8, 1.439e-3
0.595, -1.601e-7, 1.439e-3
0.600, -2.494e-7, 1.439e-3
0.605, -3.410e-7, 1.439e-3
0.610, -4.277e-7, 1.439e-3
0.615, -5.017e-7, 1.439e-3
0.620, -5.671e-7, 1.439e-3
0.625, -6.224e-7, 1.439e-3
0.630, -6.786e-7, 1.439e-3
0.635, -7.248e-7, 1.439e-3
0.640, -7.705e-7, 1.439e-3
0.645, -8.066e-7, 1.439e-3
0.650, -8.473e-7, 1.439e-3
0.655, -8.807e-7, 1.439e-3
0.660, -9.236e-7, 1.439e-3
0.665, -9.542e-7, 1.439e-3
0.670, -9.835e-7, 1.439e-3
0.675, -1.015e-6, 1.439e-3
0.680, -1.041e-6, 1.439e-3
0.685, -1.066e-6, 1.439e-3
0.690, -1.092e-6, 1.439e-3
0.695, -1.111e-6, 1.439e-3
0.700, -1.132e-6, 1.439e-3
0.705, -1.143e-6, 1.439e-3
0.710, -1.158e-6, 1.438e-3
0.715, -1.170e-6, 1.438e-3
0.720, -1.182e-6, 1.438e-3
0.725, -1.195e-6, 1.438e-3
0.730, -1.209e-6, 1.438e-3
0.735, -1.224e-6, 1.438e-3
0.740, -1.241e-6, 1.438e-3
0.745, -1.262e-6, 1.438e-3
0.750, -1.282e-6, 1.438e-3
0.755, -1.297e-6, 1.438e-3
0.760, -1.316e-6, 1.438e-3
0.765, -1.333e-6, 1.438e-3
0.770, -1.346e-6, 1.438e-3
0.775, -1.361e-6, 1.438e-3
0.780, -1.372e-6, 1.438e-3
0.785, -1.378e-6, 1.438e-3
0.790, -1.394e-6, 1.437e-3
0.795, -1.404e-6, 1.437e-3
0.800, -1.415e-6, 1.437e-3
0.805, -1.427e-6, 1.437e-3
0.810, -1.445e-6, 1.437e-3
0.815, -1.460e-6, 1.437e-3
0.820, -1.475e-6, 1.437e-3
0.825, -1.498e-6, 1.437e-3
0.830, -1.517e-6, 1.437e-3
0.835, -1.531e-6, 1.437e-3
0.840, -1.556e-6, 1.437e-3
0.845, -1.575e-6, 1.437e-3
0.850, -1.592e-6, 1.437e-3
0.855, -1.607e-6, 1.436e-3
0.860, -1.625e-6, 1.436e-3
0.865, -1.639e-6, 1.436e-3
0.870, -1.653e-6, 1.436e-3
0.875, -1.669e-6, 1.436e-3
0.880, -1.687e-6, 1.436e-3
0.885, -1.704e-6, 1.436e-3
0.890, -1.729e-6, 1.436e-3
0.895, -1.749e-6, 1.436e-3
0.900, -1.770e-6, 1.436e-3
0.905, -1.792e-6, 1.436e-3
0.910, -1.810e-6, 1.436e-3
0.915, -1.826e-6, 1.435e-3
0.920, -1.851e-6, 1.435e-3
0.925, -1.868e-6, 1.435e-3
0.930, -1.885e-6, 1.435e-3
0.935, -1.889e-6, 1.435e-3
0.940, -1.916e-6, 1.435e-3
0.945, -1.921e-6, 1.435e-3
0.950, -1.933e-6, 1.435e-3
0.955, -1.946e-6, 1.435e-3
0.960, -1.952e-6, 1.435e-3
0.965, -1.965e-6, 1.434e-3
0.970, -1.982e-6, 1.434e-3
0.975, -1.991e-6, 1.434e-3
0.980, -2.008e-6, 1.434e-3
0.985, -2.020e-6, 1.434e-3
0.990, -2.032e-6, 1.434e-3
0.995, -2.042e-6, 1.434e-3
1.000, -2.059e-6, 1.434e-3
1.005, -2.077e-6, 1.434e-3
1.010, -2.088e-6, 1.434e-3
1.015, -2.098e-6, 1.433e-3
1.020, -2.106e-6, 1.433e-3
1.025, -2.114e-6, 1.433e-3
1.030, -2.117e-6, 1.433e-3
1.035, -2.125e-6, 1.433e-3
1.040, -2.133e-6, 1.433e-3
1.045, -2.138e-6, 1.433e-3
1.050, -2.144e-6, 1.433e-3
1.055, -2.155e-6, 1.433e-3
1.060, -2.165e-6, 1.433e-3
1.065, -2.180e-6, 1.432e-3
1.070, -2.190e-6, 1.432e-3
1.075, -2.197e-6, 1.432e-3
1.080, -2.206e-6, 1.432e-3
1.085, -2.215e-6, 1.432e-3
1.090, -2.224e-6, 1.432e-3
1.095, -2.233e-6, 1.432e-3
1.100, -2.234e-6, 1.432e-3
1.105, -2.247e-6, 1.432e-3
1.110, -2.253e-6, 1.431e-3
1.115, -2.253e-6, 1.431e-3
1.120, -2.266e-6, 1.431e-3
1.125, -2.272e-6, 1.431e-3
1.130, -2.278e-6, 1.431e-3
1.135, -2.291e-6, 1.431e-3
1.140, -2.305e-6, 1.431e-3
1.145, -2.318e-6, 1.431e-3
1.150, -2.074e-6, 1.431e-3

Segment 8:
1.145, -1.677e-6, 1.430e-3
1.140, -1.407e-6, 1.430e-3
1.135, -1.193e-6, 1.430e-3
1.130, -1.029e-6, 1.430e-3
1.125, -8.964e-7, 1.430e-3
1.120, -7.826e-7, 1.430e-3
1.115, -6.884e-7, 1.430e-3
1.110, -6.071e-7, 1.430e-3
1.105, -5.369e-7, 1.430e-3
1.100, -4.693e-7, 1.430e-3
1.095, -4.190e-7, 1.430e-3
1.090, -3.734e-7, 1.430e-3
1.085, -3.325e-7, 1.430e-3
1.080, -3.010e-7, 1.430e-3
1.075, -2.738e-7, 1.430e-3
1.070, -2.479e-7, 1.430e-3
1.065, -2.225e-7, 1.430e-3
1.060, -2.031e-7, 1.430e-3
1.055, -1.790e-7, 1.430e-3
1.050, -1.691e-7, 1.430e-3
1.045, -1.565e-7, 1.430e-3
1.040, -1.364e-7, 1.430e-3
1.035, -1.202e-7, 1.430e-3
1.030, -1.006e-7, 1.430e-3
1.025, -8.568e-8, 1.430e-3
1.020, -7.584e-8, 1.430e-3
1.015, -5.683e-8, 1.430e-3
1.010, -4.555e-8, 1.430e-3
1.005, -3.192e-8, 1.430e-3
1.000, -2.570e-8, 1.430e-3
0.995, -1.597e-8, 1.430e-3
0.990, -1.399e-8, 1.430e-3
0.985, -4.383e-9, 1.430e-3
0.980, -4.667e-9, 1.430e-3
0.975, 1.243e-9, 1.430e-3
0.970, 5.935e-9, 1.430e-3
0.965, 1.688e-8, 1.430e-3
0.960, 2.019e-8, 1.430e-3
0.955, 2.789e-8, 1.430e-3
0.950, 3.457e-8, 1.430e-3
0.945, 4.648e-8, 1.430e-3
0.940, 5.120e-8, 1.430e-3
0.935, 5.859e-8, 1.430e-3
0.930, 6.281e-8, 1.430e-3
0.925, 7.276e-8, 1.430e-3
0.920, 7.557e-8, 1.430e-3
0.915, 8.085e-8, 1.430e-3
0.910, 8.182e-8, 1.430e-3
0.905, 8.644e-8, 1.430e-3
0.900, 8.803e-8, 1.430e-3
0.895, 8.894e-8, 1.430e-3
0.890, 9.244e-8, 1.430e-3
0.885, 9.819e-8, 1.430e-3
0.880, 1.016e-7, 1.430e-3
0.875, 1.095e-7, 1.430e-3
0.870, 1.184e-7, 1.430e-3
0.865, 1.270e-7, 1.430e-3
0.860, 1.326e-7, 1.430e-3
0.855, 1.422e-7, 1.430e-3
0.850, 1.487e-7, 1.430e-3
0.845, 1.532e-7, 1.430e-3
0.840, 1.563e-7, 1.430e-3
0.835, 1.589e-7, 1.430e-3
0.830, 1.626e-7, 1.430e-3
0.825, 1.650e-7, 1.430e-3
0.820, 1.673e-7, 1.430e-3
0.815, 1.763e-7, 1.430e-3
0.810, 1.779e-7, 1.430e-3
0.805, 1.847e-7, 1.430e-3
0.800, 1.881e-7, 1.430e-3
0.795, 2.016e-7, 1.430e-3
0.790, 2.069e-7, 1.430e-3
0.785, 2.160e-7, 1.430e-3
0.780, 2.232e-7, 1.430e-3
0.775, 2.351e-7, 1.430e-3
0.770, 2.432e-7, 1.430e-3
0.765, 2.522e-7, 1.430e-3
0.760, 2.591e-7, 1.430e-3
0.755, 2.663e-7, 1.430e-3
0.750, 2.699e-7, 1.430e-3
0.745, 2.749e-7, 1.430e-3
0.740, 2.857e-7, 1.430e-3
0.735, 2.887e-7, 1.430e-3
0.730, 2.951e-7, 1.430e-3
0.725, 3.083e-7, 1.430e-3
0.720, 3.169e-7, 1.430e-3
0.715, 3.308e-7, 1.430e-3
0.710, 3.395e-7, 1.430e-3
0.705, 3.561e-7, 1.430e-3
0.700, 3.698e-7, 1.430e-3
0.695, 3.879e-7, 1.430e-3
0.690, 3.993e-7, 1.430e-3
0.685, 4.125e-7, 1.430e-3
0.680, 4.253e-7, 1.430e-3
0.675, 4.395e-7, 1.430e-3
0.670, 4.461e-7, 1.430e-3
0.665, 4.613e-7, 1.430e-3
0.660, 4.766e-7, 1.430e-3
0.655, 4.878e-7, 1.431e-3
0.650, 5.053e-7, 1.431e-3
0.645, 5.264e-7, 1.431e-3
0.640, 5.462e-7, 1.431e-3
0.635, 5.720e-7, 1.431e-3
0.630, 5.934e-7, 1.431e-3
0.625, 6.220e-7, 1.431e-3
0.620, 6.477e-7, 1.431e-3
0.615, 6.787e-7, 1.431e-3
0.610, 7.061e-7, 1.431e-3
0.605, 7.362e-7, 1.431e-3
0.600, 7.619e-7, 1.431e-3
0.595, 7.941e-7, 1.431e-3
0.590, 8.237e-7, 1.431e-3
0.585, 8.597e-7, 1.431e-3
0.580, 8.940e-7, 1.431e-3
0.575, 9.355e-7, 1.431e-3
0.570, 9.767e-7, 1.431e-3
0.565, 1.023e-6, 1.431e-3
0.560, 1.086e-6, 1.431e-3
0.555, 1.141e-6, 1.431e-3
0.550, 1.201e-6, 1.431e-3
0.545, 1.276e-6, 1.431e-3
0.540, 1.346e-6, 1.431e-3
0.535, 1.446e-6, 1.432e-3
0.530, 1.527e-6, 1.432e-3
0.525, 1.618e-6, 1.432e-3
0.520, 1.716e-6, 1.432e-3
0.515, 1.822e-6, 1.432e-3
0.510, 1.938e-6, 1.432e-3
0.505, 2.073e-6, 1.432e-3
0.500, 2.207e-6, 1.432e-3
0.495, 2.379e-6, 1.432e-3
0.490, 2.551e-6, 1.432e-3
0.485, 2.759e-6, 1.433e-3
0.480, 2.980e-6, 1.433e-3
0.475, 3.231e-6, 1.433e-3
0.470, 3.475e-6, 1.433e-3
0.465, 3.786e-6, 1.433e-3
0.460, 4.098e-6, 1.433e-3
0.455, 4.434e-6, 1.434e-3
0.450, 4.819e-6, 1.434e-3
0.445, 5.210e-6, 1.434e-3
0.440, 5.630e-6, 1.434e-3
0.435, 6.063e-6, 1.435e-3
0.430, 6.563e-6, 1.435e-3
0.425, 7.106e-6, 1.435e-3
0.420, 7.660e-6, 1.436e-3
0.415, 8.181e-6, 1.436e-3
0.410, 8.815e-6, 1.437e-3
0.405, 9.331e-6, 1.437e-3
0.400, 9.926e-6, 1.438e-3
0.395, 1.064e-5, 1.438e-3
0.390, 1.127e-5, 1.439e-3
0.385, 1.198e-5, 1.439e-3
0.380, 1.311e-5, 1.440e-3
0.375, 1.413e-5, 1.441e-3
0.370, 1.486e-5, 1.441e-3
0.365, 1.554e-5, 1.442e-3
0.360, 1.596e-5, 1.443e-3
0.355, 1.636e-5, 1.444e-3
0.350, 1.646e-5, 1.445e-3
0.345, 1.652e-5, 1.445e-3
0.340, 1.853e-5, 1.446e-3
0.335, 1.848e-5, 1.447e-3
0.330, 1.922e-5, 1.448e-3
0.325, 2.043e-5, 1.449e-3
0.320, 2.340e-5, 1.450e-3
0.315, 2.290e-5, 1.452e-3
0.310, 2.246e-5, 1.453e-3
0.305, 2.328e-5, 1.454e-3
0.300, 2.533e-5, 1.455e-3
0.295, 2.654e-5, 1.457e-3
0.290, 2.649e-5, 1.458e-3
0.285, 2.783e-5, 1.459e-3
0.280, 2.891e-5, 1.461e-3
0.275, 2.643e-5, 1.462e-3
0.270, 2.842e-5, 1.463e-3
0.265, 2.974e-5, 1.465e-3
0.260, 3.038e-5, 1.466e-3
0.255, 2.726e-5, 1.468e-3
0.250, 2.477e-5, 1.469e-3
0.245, 2.974e-5, 1.471e-3
0.240, 3.464e-5, 1.472e-3
0.235, 3.593e-5, 1.474e-3
0.230, 3.419e-5, 1.476e-3
0.225, 3.086e-5, 1.477e-3
0.220, 3.099e-5, 1.479e-3
0.215, 3.125e-5, 1.480e-3
0.210, 3.031e-5, 1.482e-3
0.205, 3.051e-5, 1.483e-3
0.200, 3.215e-5, 1.485e-3
0.195, 3.255e-5, 1.487e-3
0.190, 3.273e-5, 1.488e-3
0.185, 4.423e-5, 1.491e-3
0.180, 3.884e-5, 1.492e-3
0.175, 3.659e-5, 1.494e-3
0.170, 3.533e-5, 1.496e-3
0.165, 3.197e-5, 1.498e-3
0.160, 3.953e-5, 1.500e-3
0.155, 3.731e-5, 1.502e-3
0.150, 3.307e-5, 1.503e-3
0.145, 3.486e-5, 1.505e-3
0.140, 3.695e-5, 1.507e-3
0.135, 3.610e-5, 1.509e-3
0.130, 3.568e-5, 1.510e-3
0.125, 3.632e-5, 1.512e-3
0.120, 3.579e-5, 1.514e-3
0.115, 4.048e-5, 1.516e-3
0.110, 3.879e-5, 1.518e-3
0.105, 4.060e-5, 1.520e-3
0.100, 4.507e-5, 1.522e-3
0.095, 4.842e-5, 1.525e-3
0.090, 4.873e-5, 1.527e-3
0.085, 3.793e-5, 1.529e-3
0.080, 3.764e-5, 1.531e-3
0.075, 3.248e-5, 1.532e-3
0.070, 2.910e-5, 1.534e-3
0.065, 2.471e-5, 1.535e-3
0.060, 2.492e-5, 1.536e-3
0.055, 2.777e-5, 1.538e-3
0.050, 3.624e-5, 1.540e-3
0.045, 4.869e-5, 1.542e-3
0.040, 4.914e-5, 1.544e-3
0.035, 4.609e-5, 1.547e-3
0.030, 4.288e-5, 1.549e-3
0.025, 5.606e-5, 1.552e-3
0.020, 4.923e-5, 1.554e-3
0.015, 4.365e-5, 1.556e-3
0.010, 4.081e-5, 1.558e-3
0.005, 4.638e-5, 1.561e-3
0.000, 5.082e-5, 1.563e-3
-0.005, 4.094e-5, 1.565e-3
-0.010, 3.899e-5, 1.567e-3
-0.015, 3.529e-5, 1.569e-3
-0.020, 4.399e-5, 1.571e-3
-0.025, 3.969e-5, 1.573e-3
-0.030, 4.593e-5, 1.576e-3
-0.035, 3.996e-5, 1.578e-3
-0.040, 4.454e-5, 1.580e-3
-0.045, 5.080e-5, 1.582e-3
-0.050, 4.374e-5, 1.584e-3
-0.055, 3.924e-5, 1.586e-3
-0.060, 3.775e-5, 1.588e-3
-0.065, 4.216e-5, 1.590e-3
-0.070, 4.357e-5, 1.593e-3
-0.075, 3.837e-5, 1.595e-3
-0.080, 3.252e-5, 1.596e-3
-0.085, 3.187e-5, 1.598e-3
-0.090, 3.992e-5, 1.600e-3
-0.095, 4.100e-5, 1.602e-3
-0.100, 3.900e-5, 1.604e-3
-0.105, 3.740e-5, 1.606e-3
-0.110, 3.706e-5, 1.607e-3
-0.115, 4.541e-5, 1.610e-3
-0.120, 3.925e-5, 1.612e-3
-0.125, 4.904e-5, 1.614e-3
-0.130, 4.951e-5, 1.617e-3
-0.135, 4.394e-5, 1.619e-3
-0.140, 3.860e-5, 1.621e-3
-0.145, 4.538e-5, 1.623e-3
-0.150, 4.673e-5, 1.625e-3
-0.155, 4.287e-5, 1.628e-3
-0.160, 4.331e-5, 1.630e-3
-0.165, 4.249e-5, 1.632e-3
-0.170, 4.107e-5, 1.634e-3
-0.175, 4.037e-5, 1.636e-3
-0.180, 4.128e-5, 1.638e-3
-0.185, 3.445e-5, 1.640e-3
-0.190, 3.913e-5, 1.642e-3
-0.195, 3.964e-5, 1.644e-3
-0.200, 4.397e-5, 1.646e-3
-0.205, 4.162e-5, 1.648e-3
-0.210, 5.634e-5, 1.651e-3
-0.215, 4.514e-5, 1.653e-3
-0.220, 4.673e-5, 1.655e-3
-0.225, 4.129e-5, 1.657e-3
-0.230, 3.775e-5, 1.659e-3
-0.235, 3.350e-5, 1.661e-3
-0.240, 3.912e-5, 1.663e-3
-0.245, 4.772e-5, 1.665e-3
-0.250, 4.655e-5, 1.668e-3
-0.255, 4.085e-5, 1.670e-3
-0.260, 3.745e-5, 1.671e-3
-0.265, 4.137e-5, 1.674e-3
-0.270, 4.489e-5, 1.676e-3
-0.275, 4.360e-5, 1.678e-3
-0.280, 4.655e-5, 1.680e-3

Segment 9:
-0.275, 4.470e-5, 1.683e-3
-0.270, 3.911e-5, 1.685e-3
-0.265, 3.292e-5, 1.686e-3
-0.260, 3.029e-5, 1.688e-3
-0.255, 4.320e-5, 1.690e-3
-0.250, 4.910e-5, 1.692e-3
-0.245, 4.429e-5, 1.694e-3
-0.240, 4.349e-5, 1.697e-3
-0.235, 3.932e-5, 1.699e-3
-0.230, 3.706e-5, 1.700e-3
-0.225, 3.800e-5, 1.702e-3
-0.220, 4.206e-5, 1.704e-3
-0.215, 3.476e-5, 1.706e-3
-0.210, 2.872e-5, 1.708e-3
-0.205, 2.795e-5, 1.709e-3
-0.200, 3.429e-5, 1.711e-3
-0.195, 3.933e-5, 1.713e-3
-0.190, 4.207e-5, 1.715e-3
-0.185, 5.149e-5, 1.717e-3
-0.180, 5.996e-5, 1.720e-3
-0.175, 4.914e-5, 1.723e-3
-0.170, 5.249e-5, 1.725e-3
-0.165, 3.812e-5, 1.727e-3
-0.160, 3.017e-5, 1.729e-3
-0.155, 3.162e-5, 1.730e-3
-0.150, 3.472e-5, 1.732e-3
-0.145, 2.833e-5, 1.734e-3
-0.140, 5.876e-5, 1.737e-3
-0.135, 4.469e-5, 1.739e-3
-0.130, 4.558e-5, 1.741e-3
-0.125, 4.847e-5, 1.744e-3
-0.120, 4.114e-5, 1.746e-3
-0.115, 4.861e-5, 1.748e-3
-0.110, 4.382e-5, 1.750e-3
-0.105, 5.313e-5, 1.753e-3
-0.100, 4.233e-5, 1.755e-3
-0.095, 4.018e-5, 1.757e-3
-0.090, 3.451e-5, 1.759e-3
-0.085, 2.767e-5, 1.760e-3
-0.080, 3.000e-5, 1.762e-3
-0.075, 3.105e-5, 1.763e-3
-0.070, 4.942e-5, 1.766e-3
-0.065, 4.426e-5, 1.768e-3
-0.060, 4.392e-5, 1.770e-3
-0.055, 4.343e-5, 1.772e-3
-0.050, 4.165e-5, 1.774e-3
-0.045, 3.399e-5, 1.776e-3
-0.040, 3.868e-5, 1.778e-3
-0.035, 3.672e-5, 1.780e-3
-0.030, 2.852e-5, 1.781e-3
-0.025, 2.391e-5, 1.782e-3
-0.020, 3.576e-5, 1.784e-3
-0.015, 4.340e-5, 1.786e-3
-0.010, 4.693e-5, 1.789e-3
-0.005, 4.233e-5, 1.791e-3
-0.000, 3.594e-5, 1.793e-3
0.005, 3.727e-5, 1.794e-3
0.010, 5.094e-5, 1.797e-3
0.015, 4.701e-5, 1.799e-3
0.020, 4.033e-5, 1.801e-3
0.025, 3.578e-5, 1.803e-3
0.030, 4.245e-5, 1.805e-3
0.035, 4.442e-5, 1.807e-3
0.040, 4.020e-5, 1.810e-3
0.045, 4.590e-5, 1.812e-3
0.050, 4.295e-5, 1.814e-3
0.055, 3.798e-5, 1.816e-3
0.060, 3.905e-5, 1.818e-3
0.065, 3.802e-5, 1.820e-3
0.070, 3.731e-5, 1.822e-3
0.075, 3.816e-5, 1.823e-3
0.080, 4.124e-5, 1.826e-3
0.085, 5.046e-5, 1.828e-3
0.090, 4.175e-5, 1.830e-3
0.095, 4.070e-5, 1.832e-3
0.100, 4.157e-5, 1.834e-3
0.105, 5.401e-5, 1.837e-3
0.110, 3.607e-5, 1.839e-3
0.115, 3.381e-5, 1.840e-3
0.120, 4.574e-5, 1.843e-3
0.125, 4.554e-5, 1.845e-3
0.130, 3.741e-5, 1.847e-3
0.135, 4.136e-5, 1.849e-3
0.140, 4.275e-5, 1.851e-3
0.145, 3.725e-5, 1.853e-3
0.150, 3.386e-5, 1.855e-3
0.155, 3.304e-5, 1.856e-3
0.160, 4.601e-5, 1.859e-3
0.165, 4.431e-5, 1.861e-3
0.170, 4.701e-5, 1.863e-3
0.175, 3.642e-5, 1.865e-3
0.180, 3.665e-5, 1.867e-3
0.185, 3.455e-5, 1.869e-3
0.190, 3.940e-5, 1.871e-3
0.195, 3.456e-5, 1.872e-3
0.200, 3.001e-5, 1.874e-3
0.205, 3.401e-5, 1.875e-3
0.210, 3.500e-5, 1.877e-3
0.215, 3.493e-5, 1.879e-3
0.220, 3.354e-5, 1.881e-3
0.225, 3.673e-5, 1.882e-3
0.230, 4.078e-5, 1.884e-3
0.235, 4.530e-5, 1.887e-3
0.240, 4.340e-5, 1.889e-3
0.245, 3.549e-5, 1.891e-3
0.250, 2.804e-5, 1.892e-3
0.255, 2.775e-5, 1.893e-3
0.260, 2.951e-5, 1.895e-3
0.265, 3.170e-5, 1.897e-3
0.270, 3.814e-5, 1.898e-3
0.275, 3.521e-5, 1.900e-3
0.280, 3.641e-5, 1.902e-3
0.285, 3.603e-5, 1.904e-3
0.290, 3.184e-5, 1.905e-3
0.295, 2.924e-5, 1.907e-3
0.300, 2.678e-5, 1.908e-3
0.305, 2.837e-5, 1.910e-3
0.310, 3.429e-5, 1.911e-3
0.315, 2.941e-5, 1.913e-3
0.320, 2.915e-5, 1.914e-3
0.325, 2.643e-5, 1.916e-3
0.330, 2.869e-5, 1.917e-3
0.335, 2.622e-5, 1.918e-3
0.340, 2.426e-5, 1.920e-3
0.345, 2.143e-5, 1.921e-3
0.350, 2.243e-5, 1.922e-3
0.355, 2.028e-5, 1.923e-3
0.360, 1.866e-5, 1.924e-3
0.365, 1.987e-5, 1.925e-3
0.370, 1.863e-5, 1.926e-3
0.375, 1.739e-5, 1.927e-3
0.380, 1.667e-5, 1.927e-3
0.385, 1.509e-5, 1.928e-3
0.390, 1.355e-5, 1.929e-3
0.395, 1.272e-5, 1.929e-3
0.400, 1.236e-5, 1.930e-3
0.405, 1.235e-5, 1.931e-3
0.410, 1.258e-5, 1.931e-3
0.415, 1.380e-5, 1.932e-3
0.420, 1.321e-5, 1.933e-3
0.425, 1.245e-5, 1.933e-3
0.430, 1.129e-5, 1.934e-3
0.435, 1.036e-5, 1.934e-3
0.440, 1.008e-5, 1.935e-3
0.445, 9.838e-6, 1.935e-3
0.450, 8.793e-6, 1.936e-3
0.455, 8.295e-6, 1.936e-3
0.460, 7.621e-6, 1.937e-3
0.465, 7.064e-6, 1.937e-3
0.470, 6.582e-6, 1.937e-3
0.475, 6.099e-6, 1.938e-3
0.480, 5.672e-6, 1.938e-3
0.485, 5.375e-6, 1.938e-3
0.490, 4.884e-6, 1.938e-3
0.495, 4.451e-6, 1.939e-3
0.500, 4.033e-6, 1.939e-3
0.505, 3.633e-6, 1.939e-3
0.510, 3.335e-6, 1.939e-3
0.515, 3.024e-6, 1.939e-3
0.520, 2.691e-6, 1.939e-3
0.525, 2.391e-6, 1.940e-3
0.530, 2.087e-6, 1.940e-3
0.535, 1.832e-6, 1.940e-3
0.540, 1.613e-6, 1.940e-3
0.545, 1.369e-6, 1.940e-3
0.550, 1.156e-6, 1.940e-3
0.555, 9.735e-7, 1.940e-3
0.560, 7.993e-7, 1.940e-3
0.565, 6.347e-7, 1.940e-3
0.570, 4.770e-7, 1.940e-3
0.575, 3.368e-7, 1.940e-3
0.580, 1.993e-7, 1.940e-3
0.585, 8.017e-8, 1.940e-3
0.590, -4.239e-8, 1.940e-3
0.595, -1.591e-7, 1.940e-3
0.600, -2.558e-7, 1.940e-3
0.605, -3.479e-7, 1.940e-3
0.610, -4.311e-7, 1.940e-3
0.615, -5.070e-7, 1.940e-3
0.620, -5.798e-7, 1.940e-3
0.625, -6.366e-7, 1.940e-3
0.630, -6.942e-7, 1.940e-3
0.635, -7.405e-7, 1.940e-3
0.640, -7.840e-7, 1.940e-3
0.645, -8.180e-7, 1.940e-3
0.650, -8.524e-7, 1.940e-3
0.655, -8.873e-7, 1.940e-3
0.660, -9.163e-7, 1.940e-3
0.665, -9.485e-7, 1.940e-3
0.670, -9.795e-7, 1.940e-3
0.675, -1.007e-6, 1.940e-3
0.680, -1.036e-6, 1.939e-3
0.685, -1.066e-6, 1.939e-3
0.690, -1.092e-6, 1.939e-3
0.695, -1.112e-6, 1.939e-3
0.700, -1.131e-6, 1.939e-3
0.705, -1.148e-6, 1.939e-3
0.710, -1.167e-6, 1.939e-3
0.715, -1.182e-6, 1.939e-3
0.720, -1.183e-6, 1.939e-3
0.725, -1.204e-6, 1.939e-3
0.730, -1.216e-6, 1.939e-3
0.735, -1.227e-6, 1.939e-3
0.740, -1.243e-6, 1.939e-3
0.745, -1.257e-6, 1.939e-3
0.750, -1.273e-6, 1.939e-3
0.755, -1.287e-6, 1.939e-3
0.760, -1.309e-6, 1.939e-3
0.765, -1.323e-6, 1.938e-3
0.770, -1.343e-6, 1.938e-3
0.775, -1.357e-6, 1.938e-3
0.780, -1.374e-6, 1.938e-3
0.785, -1.385e-6, 1.938e-3
0.790, -1.400e-6, 1.938e-3
0.795, -1.413e-6, 1.938e-3
0.800, -1.423e-6, 1.938e-3
0.805, -1.437e-6, 1.938e-3
0.810, -1.450e-6, 1.938e-3
0.815, -1.456e-6, 1.938e-3
0.820, -1.474e-6, 1.938e-3
0.825, -1.493e-6, 1.938e-3
0.830, -1.513e-6, 1.938e-3
0.835, -1.529e-6, 1.937e-3
0.840, -1.554e-6, 1.937e-3
0.845, -1.550e-6, 1.937e-3
0.850, -1.600e-6, 1.937e-3
0.855, -1.614e-6, 1.937e-3
0.860, -1.630e-6, 1.937e-3
0.865, -1.649e-6, 1.937e-3
0.870, -1.667e-6, 1.937e-3
0.875, -1.682e-6, 1.937e-3
0.880, -1.699e-6, 1.937e-3
0.885, -1.712e-6, 1.937e-3
0.890, -1.735e-6, 1.937e-3
0.895, -1.752e-6, 1.936e-3
0.900, -1.769e-6, 1.936e-3
0.905, -1.787e-6, 1.936e-3
0.910, -1.800e-6, 1.936e-3
0.915, -1.830e-6, 1.936e-3
0.920, -1.849e-6, 1.936e-3
0.925, -1.864e-6, 1.936e-3
0.930, -1.886e-6, 1.936e-3
0.935, -1.898e-6, 1.936e-3
0.940, -1.914e-6, 1.936e-3
0.945, -1.929e-6, 1.936e-3
0.950, -1.941e-6, 1.935e-3
0.955, -1.952e-6, 1.935e-3
0.960, -1.961e-6, 1.935e-3
0.965, -1.969e-6, 1.935e-3
0.970, -1.985e-6, 1.935e-3
0.975, -1.992e-6, 1.935e-3
0.980, -2.000e-6, 1.935e-3
0.985, -2.014e-6, 1.935e-3
0.990, -2.021e-6, 1.935e-3
0.995, -2.040e-6, 1.935e-3
1.000, -2.055e-6, 1.934e-3
1.005, -2.071e-6, 1.934e-3
1.010, -2.080e-6, 1.934e-3
1.015, -2.098e-6, 1.934e-3
1.020, -2.090e-6, 1.934e-3
1.025, -2.116e-6, 1.934e-3
1.030, -2.117e-6, 1.934e-3
1.035, -2.130e-6, 1.934e-3
1.040, -2.132e-6, 1.934e-3
1.045, -2.140e-6, 1.933e-3
1.050, -2.143e-6, 1.933e-3
1.055, -2.152e-6, 1.933e-3
1.060, -2.156e-6, 1.933e-3
1.065, -2.165e-6, 1.933e-3
1.070, -2.174e-6, 1.933e-3
1.075, -2.185e-6, 1.933e-3
1.080, -2.196e-6, 1.933e-3
1.085, -2.203e-6, 1.933e-3
1.090, -2.212e-6, 1.933e-3
1.095, -2.219e-6, 1.932e-3
1.100, -2.234e-6, 1.932e-3
1.105, -2.238e-6, 1.932e-3
1.110, -2.249e-6, 1.932e-3
1.115, -2.251e-6, 1.932e-3
1.120, -2.259e-6, 1.932e-3
1.125, -2.261e-6, 1.932e-3
1.130, -2.276e-6, 1.932e-3
1.135, -2.279e-6, 1.931e-3
1.140, -2.288e-6, 1.931e-3
1.145, -2.299e-6, 1.931e-3
1.150, -2.056e-6, 1.931e-3

Segment 10:
1.145, -1.656e-6, 1.931e-3
1.140, -1.393e-6, 1.931e-3
1.135, -1.184e-6, 1.931e-3
1.130, -1.022e-6, 1.931e-3
1.125, -8.864e-7, 1.931e-3
1.120, -7.759e-7, 1.931e-3
1.115, -6.803e-7, 1.931e-3
1.110, -6.025e-7, 1.931e-3
1.105, -5.371e-7, 1.931e-3
1.100, -4.692e-7, 1.931e-3
1.095, -4.182e-7, 1.931e-3
1.090, -3.722e-7, 1.931e-3
1.085, -3.282e-7, 1.931e-3
1.080, -3.008e-7, 1.931e-3
1.075, -2.652e-7, 1.931e-3
1.070, -2.383e-7, 1.931e-3
1.065, -2.149e-7, 1.931e-3
1.060, -1.963e-7, 1.931e-3
1.055, -1.785e-7, 1.931e-3
1.050, -1.608e-7, 1.931e-3
1.045, -1.497e-7, 1.931e-3
1.040, -1.334e-7, 1.931e-3
1.035, -1.223e-7, 1.931e-3
1.030, -1.055e-7, 1.931e-3
1.025, -8.811e-8, 1.931e-3
1.020, -7.444e-8, 1.931e-3
1.015, -5.926e-8, 1.931e-3
1.010, -4.801e-8, 1.931e-3
1.005, -3.281e-8, 1.931e-3
1.000, -2.643e-8, 1.931e-3
0.995, -1.304e-8, 1.931e-3
0.990, -7.931e-9, 1.931e-3
0.985, 4.378e-9, 1.931e-3
0.980, 1.446e-9, 1.931e-3
0.975, 9.232e-9, 1.931e-3
0.970, 8.521e-9, 1.931e-3
0.965, 1.973e-8, 1.931e-3
0.960, 2.031e-8, 1.931e-3
0.955, 2.900e-8, 1.931e-3
0.950, 3.214e-8, 1.931e-3
0.945, 4.138e-8, 1.931e-3
0.940, 4.390e-8, 1.931e-3
0.935, 5.449e-8, 1.931e-3
0.930, 6.151e-8, 1.931e-3
0.925, 7.164e-8, 1.931e-3
0.920, 7.225e-8, 1.931e-3
0.915, 8.449e-8, 1.931e-3
0.910, 8.535e-8, 1.931e-3
0.905, 9.467e-8, 1.931e-3
0.900, 9.227e-8, 1.931e-3
0.895, 9.849e-8, 1.931e-3
0.890, 9.559e-8, 1.931e-3
0.885, 9.939e-8, 1.931e-3
0.880, 1.037e-7, 1.931e-3
0.875, 1.120e-7, 1.931e-3
0.870, 1.152e-7, 1.931e-3
0.865, 1.199e-7, 1.931e-3
0.860, 1.278e-7, 1.931e-3
0.855, 1.389e-7, 1.931e-3
0.850, 1.441e-7, 1.931e-3
0.845, 1.528e-7, 1.931e-3
0.840, 1.582e-7, 1.931e-3
0.835, 1.644e-7, 1.931e-3
0.830, 1.689e-7, 1.931e-3
0.825, 1.709e-7, 1.931e-3
0.820, 1.748e-7, 1.931e-3
0.815, 1.797e-7, 1.931e-3
0.810, 1.839e-7, 1.931e-3
0.805, 1.850e-7, 1.931e-3
0.800, 1.913e-7, 1.931e-3
0.795, 1.980e-7, 1.931e-3
0.790, 2.047e-7, 1.931e-3
0.785, 2.115e-7, 1.931e-3
0.780, 2.245e-7, 1.931e-3
0.775, 2.324e-7, 1.931e-3
0.770, 2.396e-7, 1.931e-3
0.765, 2.508e-7, 1.931e-3
0.760, 2.601e-7, 1.931e-3
0.755, 2.714e-7, 1.931e-3
0.750, 2.770e-7, 1.931e-3
0.745, 2.884e-7, 1.931e-3
0.740, 2.878e-7, 1.931e-3
0.735, 2.947e-7, 1.931e-3
0.730, 2.984e-7, 1.931e-3
0.725, 3.133e-7, 1.931e-3
0.720, 3.163e-7, 1.931e-3
0.715, 3.262e-7, 1.931e-3
0.710, 3.379e-7, 1.931e-3
0.705, 3.531e-7, 1.931e-3
0.700, 3.684e-7, 1.931e-3
0.695, 3.852e-7, 1.931e-3
0.690, 3.973e-7, 1.931e-3
0.685, 4.160e-7, 1.931e-3
0.680, 4.271e-7, 1.931e-3
0.675, 4.438e-7, 1.931e-3
0.670, 4.550e-7, 1.931e-3
0.665, 4.673e-7, 1.931e-3
0.660, 4.807e-7, 1.931e-3
0.655, 4.971e-7, 1.931e-3
0.650, 5.123e-7, 1.931e-3
0.645, 5.265e-7, 1.931e-3
0.640, 5.468e-7, 1.931e-3
0.635, 5.711e-7, 1.931e-3
0.630, 5.928e-7, 1.931e-3
0.625, 6.174e-7, 1.931e-3
0.620, 6.477e-7, 1.931e-3
0.615, 6.779e-7, 1.931e-3
0.610, 7.027e-7, 1.931e-3
0.605, 7.383e-7, 1.931e-3
0.600, 7.695e-7, 1.932e-3
0.595, 7.992e-7, 1.932e-3
0.590, 8.338e-7, 1.932e-3
0.585, 8.689e-7, 1.932e-3
0.580, 9.049e-7, 1.932e-3
0.575, 9.441e-7, 1.932e-3
0.570, 9.830e-7, 1.932e-3
0.565, 1.028e-6, 1.932e-3
0.560, 1.085e-6, 1.932e-3
0.555, 1.147e-6, 1.932e-3
0.550, 1.206e-6, 1.932e-3
0.545, 1.278e-6, 1.932e-3
0.540, 1.350e-6, 1.932e-3
0.535, 1.453e-6, 1.932e-3
0.530, 1.538e-6, 1.932e-3
0.525, 1.634e-6, 1.932e-3
0.520, 1.731e-6, 1.932e-3
0.515, 1.842e-6, 1.933e-3
0.510, 1.963e-6, 1.933e-3
0.505, 2.093e-6, 1.933e-3
0.500, 2.234e-6, 1.933e-3
0.495, 2.402e-6, 1.933e-3
0.490, 2.584e-6, 1.933e-3
0.485, 2.788e-6, 1.933e-3
0.480, 3.015e-6, 1.933e-3
0.475, 3.263e-6, 1.934e-3
0.470, 3.532e-6, 1.934e-3
0.465, 3.832e-6, 1.934e-3
0.460, 4.151e-6, 1.934e-3
0.455, 4.513e-6, 1.934e-3
0.450, 4.907e-6, 1.935e-3
0.445, 5.312e-6, 1.935e-3
0.440, 5.734e-6, 1.935e-3
0.435, 6.205e-6, 1.935e-3
0.430, 6.682e-6, 1.936e-3
0.425, 7.190e-6, 1.936e-3
0.420, 7.751e-6, 1.937e-3
0.415, 8.377e-6, 1.937e-3
0.410, 9.081e-6, 1.937e-3
0.405, 9.705e-6, 1.938e-3
0.400, 1.024e-5, 1.938e-3
0.395, 1.088e-5, 1.939e-3
0.390, 1.149e-5, 1.940e-3
0.385, 1.199e-5, 1.940e-3
0.380, 1.274e-5, 1.941e-3
0.375, 1.349e-5, 1.941e-3
0.370, 1.467e-5, 1.942e-3
0.365, 1.553e-5, 1.943e-3
0.360, 1.580e-5, 1.944e-3
0.355, 1.598e-5, 1.945e-3
0.350, 1.797e-5, 1.945e-3
0.345, 1.904e-5, 1.946e-3
0.340, 1.926e-5, 1.947e-3
0.335, 1.992e-5, 1.948e-3
0.330, 2.124e-5, 1.949e-3
0.325, 2.186e-5, 1.951e-3
0.320, 2.430e-5, 1.952e-3
0.315, 2.335e-5, 1.953e-3
0.310, 2.358e-5, 1.954e-3
0.305, 2.395e-5, 1.955e-3
0.300, 2.463e-5, 1.957e-3
0.295, 2.451e-5, 1.958e-3
0.290, 2.893e-5, 1.959e-3
0.285, 2.824e-5, 1.961e-3
0.280, 2.514e-5, 1.962e-3
0.275, 2.278e-5, 1.963e-3
0.270, 2.518e-5, 1.964e-3
0.265, 2.930e-5, 1.966e-3
0.260, 2.995e-5, 1.967e-3
0.255, 2.936e-5, 1.969e-3
0.250, 2.806e-5, 1.970e-3
0.245, 3.548e-5, 1.972e-3
0.240, 3.174e-5, 1.973e-3
0.235, 3.536e-5, 1.975e-3
0.230, 3.023e-5, 1.977e-3
0.225, 2.662e-5, 1.978e-3
0.220, 2.666e-5, 1.979e-3
0.215, 3.102e-5, 1.981e-3
0.210, 3.105e-5, 1.983e-3
0.205, 3.278e-5, 1.984e-3
0.200, 3.200e-5, 1.986e-3
0.195, 3.404e-5, 1.987e-3
0.190, 3.293e-5, 1.989e-3
0.185, 3.243e-5, 1.991e-3
0.180, 3.837e-5, 1.993e-3
0.175, 3.789e-5, 1.995e-3
0.170, 3.550e-5, 1.996e-3
0.165, 3.060e-5, 1.998e-3
0.160, 3.149e-5, 1.999e-3
0.155, 2.864e-5, 2.001e-3
0.150, 3.049e-5, 2.002e-3
0.145, 2.864e-5, 2.004e-3
0.140, 3.179e-5, 2.005e-3
0.135, 3.699e-5, 2.007e-3
0.130, 4.232e-5, 2.009e-3
0.125, 3.421e-5, 2.011e-3
0.120, 3.331e-5, 2.013e-3
0.115, 3.235e-5, 2.014e-3
0.110, 4.253e-5, 2.016e-3
0.105, 4.282e-5, 2.019e-3
0.100, 4.374e-5, 2.021e-3
0.095, 3.904e-5, 2.023e-3
0.090, 3.563e-5, 2.025e-3
0.085, 4.030e-5, 2.027e-3
0.080, 3.976e-5, 2.029e-3
0.075, 3.899e-5, 2.030e-3
0.070, 3.867e-5, 2.032e-3
0.065, 3.828e-5, 2.034e-3
0.060, 3.555e-5, 2.036e-3
0.055, 4.068e-5, 2.038e-3
0.050, 3.903e-5, 2.040e-3
0.045, 3.239e-5, 2.042e-3
0.040, 3.050e-5, 2.043e-3
0.035, 3.481e-5, 2.045e-3
0.030, 3.151e-5, 2.047e-3
0.025, 2.866e-5, 2.048e-3
0.020, 2.725e-5, 2.049e-3
0.015, 4.446e-5, 2.052e-3
0.010, 5.031e-5, 2.054e-3
0.005, 4.233e-5, 2.056e-3
0.000, 3.628e-5, 2.058e-3
-0.005, 3.865e-5, 2.060e-3
-0.010, 3.230e-5, 2.062e-3
-0.015, 4.575e-5, 2.064e-3
-0.020, 4.773e-5, 2.066e-3
-0.025, 5.038e-5, 2.069e-3
-0.030, 5.912e-5, 2.072e-3
-0.035, 4.998e-5, 2.074e-3
-0.040, 5.508e-5, 2.077e-3
-0.045, 4.146e-5, 2.079e-3
-0.050, 4.392e-5, 2.081e-3
-0.055, 4.519e-5, 2.084e-3
-0.060, 4.038e-5, 2.086e-3
-0.065, 3.789e-5, 2.087e-3
-0.070, 4.524e-5, 2.090e-3
-0.075, 4.667e-5, 2.092e-3
-0.080, 4.117e-5, 2.094e-3
-0.085, 3.922e-5, 2.096e-3
-0.090, 3.307e-5, 2.098e-3
-0.095, 3.163e-5, 2.099e-3
-0.100, 2.942e-5, 2.101e-3
-0.105, 2.977e-5, 2.102e-3
-0.110, 4.721e-5, 2.105e-3
-0.115, 4.779e-5, 2.107e-3
-0.120, 4.619e-5, 2.109e-3
-0.125, 4.168e-5, 2.111e-3
-0.130, 5.487e-5, 2.114e-3
-0.135, 5.307e-5, 2.117e-3
-0.140, 5.206e-5, 2.119e-3
-0.145, 4.699e-5, 2.122e-3
-0.150, 5.538e-5, 2.124e-3
-0.155, 4.858e-5, 2.127e-3
-0.160, 4.322e-5, 2.129e-3
-0.165, 4.211e-5, 2.131e-3
-0.170, 4.025e-5, 2.133e-3
-0.175, 4.327e-5, 2.135e-3
-0.180, 4.111e-5, 2.137e-3
-0.185, 3.659e-5, 2.139e-3
-0.190, 3.701e-5, 2.141e-3
-0.195, 4.741e-5, 2.143e-3
-0.200, 3.417e-5, 2.145e-3
-0.205, 4.183e-5, 2.147e-3
-0.210, 5.001e-5, 2.150e-3
-0.215, 4.466e-5, 2.152e-3
-0.220, 5.063e-5, 2.155e-3
-0.225, 3.998e-5, 2.157e-3
-0.230, 3.348e-5, 2.158e-3
-0.235, 4.424e-5, 2.160e-3
-0.240, 4.344e-5, 2.163e-3
-0.245, 5.674e-5, 2.165e-3
-0.250, 5.100e-5, 2.168e-3
-0.255, 4.610e-5, 2.170e-3
-0.260, 4.571e-5, 2.173e-3
-0.265, 4.976e-5, 2.175e-3
-0.270, 4.463e-5, 2.177e-3
-0.275, 3.638e-5, 2.179e-3
-0.280, 3.964e-5, 2.181e-3
