Nov. 18, 2020   14:15:48
Cyclic Voltammetry
File: c:\documents and settings\administrator\×ÀÃæ\wyz\o2b.txt
Data Source:  Experiment
Instrument Model:  CHI600B
Header: 
Note: 

Init E (V) = 0.65
High E (V) = 1.15
Low E (V) = -0.28
Init P/N = P
Scan Rate (V/s) = 0.1
Segment = 10
Sample Interval (V) = 0.005
Quiet Time (sec) = 2
Sensitivity (A/V) = 1e-5

Segment 1:

Segment 2:
Ep = 0.310V
ip = 1.017e-5A
Ah = 1.076e-5C

Segment 3:
Segment 4:
Ep = 0.305V
ip = 1.224e-5A
Ah = 1.357e-5C

Ep = -0.245V
ip = 2.182e-6A
Ah = 6.843e-7C

Segment 5:
Ep = 1.145V
ip = -9.099e-8A
Ah = -3.275e-8C

Segment 6:
Ep = 0.345V
ip = 1.238e-5A
Ah = 1.100e-5C

Segment 7:
Segment 8:
Ep = 0.320V
ip = 1.422e-5A
Ah = 1.483e-5C

Segment 9:
Segment 10:
Ep = 0.295V
ip = 1.457e-5A
Ah = 1.923e-5C

Ep = 0.150V
ip = 4.065e-6A
Ah = 1.004e-6C

Potential/V, Current/A, Charge/C

Segment 1:
0.655, -2.507e-7, -1.254e-8
0.660, -2.531e-7, -2.519e-8
0.665, -2.592e-7, -3.815e-8
0.670, -2.637e-7, -5.133e-8
0.675, -2.743e-7, -6.505e-8
0.680, -2.834e-7, -7.922e-8
0.685, -2.976e-7, -9.410e-8
0.690, -3.071e-7, -1.095e-7
0.695, -3.204e-7, -1.255e-7
0.700, -3.326e-7, -1.421e-7
0.705, -3.472e-7, -1.595e-7
0.710, -3.580e-7, -1.774e-7
0.715, -3.778e-7, -1.963e-7
0.720, -3.954e-7, -2.160e-7
0.725, -4.141e-7, -2.367e-7
0.730, -4.348e-7, -2.585e-7
0.735, -4.553e-7, -2.812e-7
0.740, -4.779e-7, -3.051e-7
0.745, -5.033e-7, -3.303e-7
0.750, -5.322e-7, -3.569e-7
0.755, -5.504e-7, -3.844e-7
0.760, -5.761e-7, -4.132e-7
0.765, -6.049e-7, -4.435e-7
0.770, -6.325e-7, -4.751e-7
0.775, -6.584e-7, -5.080e-7
0.780, -6.874e-7, -5.424e-7
0.785, -7.169e-7, -5.782e-7
0.790, -7.427e-7, -6.154e-7
0.795, -7.727e-7, -6.540e-7
0.800, -7.994e-7, -6.940e-7
0.805, -8.313e-7, -7.355e-7
0.810, -8.546e-7, -7.783e-7
0.815, -8.886e-7, -8.227e-7
0.820, -9.168e-7, -8.685e-7
0.825, -9.433e-7, -9.157e-7
0.830, -9.732e-7, -9.644e-7
0.835, -1.002e-6, -1.014e-6
0.840, -1.032e-6, -1.066e-6
0.845, -1.062e-6, -1.119e-6
0.850, -1.092e-6, -1.174e-6
0.855, -1.123e-6, -1.230e-6
0.860, -1.144e-6, -1.287e-6
0.865, -1.178e-6, -1.346e-6
0.870, -1.202e-6, -1.406e-6
0.875, -1.231e-6, -1.468e-6
0.880, -1.259e-6, -1.531e-6
0.885, -1.288e-6, -1.595e-6
0.890, -1.318e-6, -1.661e-6
0.895, -1.341e-6, -1.728e-6
0.900, -1.368e-6, -1.796e-6
0.905, -1.393e-6, -1.866e-6
0.910, -1.419e-6, -1.937e-6
0.915, -1.441e-6, -2.009e-6
0.920, -1.469e-6, -2.082e-6
0.925, -1.492e-6, -2.157e-6
0.930, -1.515e-6, -2.233e-6
0.935, -1.533e-6, -2.309e-6
0.940, -1.556e-6, -2.387e-6
0.945, -1.576e-6, -2.466e-6
0.950, -1.596e-6, -2.546e-6
0.955, -1.616e-6, -2.627e-6
0.960, -1.628e-6, -2.708e-6
0.965, -1.652e-6, -2.791e-6
0.970, -1.667e-6, -2.874e-6
0.975, -1.687e-6, -2.958e-6
0.980, -1.709e-6, -3.044e-6
0.985, -1.727e-6, -3.130e-6
0.990, -1.744e-6, -3.217e-6
0.995, -1.762e-6, -3.305e-6
1.000, -1.773e-6, -3.394e-6
1.005, -1.791e-6, -3.483e-6
1.010, -1.804e-6, -3.574e-6
1.015, -1.813e-6, -3.664e-6
1.020, -1.821e-6, -3.755e-6
1.025, -1.837e-6, -3.847e-6
1.030, -1.850e-6, -3.940e-6
1.035, -1.862e-6, -4.033e-6
1.040, -1.870e-6, -4.126e-6
1.045, -1.884e-6, -4.221e-6
1.050, -1.895e-6, -4.315e-6
1.055, -1.905e-6, -4.411e-6
1.060, -1.910e-6, -4.506e-6
1.065, -1.918e-6, -4.602e-6
1.070, -1.927e-6, -4.698e-6
1.075, -1.940e-6, -4.795e-6
1.080, -1.951e-6, -4.893e-6
1.085, -1.961e-6, -4.991e-6
1.090, -1.968e-6, -5.089e-6
1.095, -1.982e-6, -5.188e-6
1.100, -1.995e-6, -5.288e-6
1.105, -2.006e-6, -5.389e-6
1.110, -2.012e-6, -5.489e-6
1.115, -2.025e-6, -5.590e-6
1.120, -2.040e-6, -5.692e-6
1.125, -2.057e-6, -5.795e-6
1.130, -2.071e-6, -5.899e-6
1.135, -2.084e-6, -6.003e-6
1.140, -2.099e-6, -6.108e-6
1.145, -2.111e-6, -6.213e-6
1.150, -1.877e-6, -6.307e-6

Segment 2:
1.145, -1.497e-6, -6.382e-6
1.140, -1.245e-6, -6.444e-6
1.135, -1.053e-6, -6.497e-6
1.130, -8.931e-7, -6.542e-6
1.125, -7.716e-7, -6.580e-6
1.120, -6.685e-7, -6.614e-6
1.115, -5.833e-7, -6.643e-6
1.110, -5.100e-7, -6.668e-6
1.105, -4.481e-7, -6.691e-6
1.100, -3.922e-7, -6.710e-6
1.095, -3.490e-7, -6.728e-6
1.090, -3.108e-7, -6.743e-6
1.085, -2.760e-7, -6.757e-6
1.080, -2.416e-7, -6.769e-6
1.075, -2.188e-7, -6.780e-6
1.070, -1.901e-7, -6.790e-6
1.065, -1.695e-7, -6.798e-6
1.060, -1.495e-7, -6.806e-6
1.055, -1.354e-7, -6.812e-6
1.050, -1.185e-7, -6.818e-6
1.045, -1.019e-7, -6.823e-6
1.040, -8.858e-8, -6.828e-6
1.035, -7.479e-8, -6.832e-6
1.030, -5.717e-8, -6.835e-6
1.025, -4.685e-8, -6.837e-6
1.020, -3.305e-8, -6.839e-6
1.015, -2.299e-8, -6.840e-6
1.010, -1.183e-8, -6.840e-6
1.005, -6.658e-9, -6.841e-6
1.000, 1.528e-9, -6.841e-6
0.995, 5.204e-9, -6.840e-6
0.990, 1.365e-8, -6.840e-6
0.985, 2.018e-8, -6.839e-6
0.980, 3.004e-8, -6.837e-6
0.975, 3.404e-8, -6.835e-6
0.970, 4.300e-8, -6.833e-6
0.965, 4.405e-8, -6.831e-6
0.960, 5.124e-8, -6.828e-6
0.955, 5.364e-8, -6.826e-6
0.950, 6.161e-8, -6.823e-6
0.945, 6.583e-8, -6.819e-6
0.940, 7.388e-8, -6.816e-6
0.935, 7.667e-8, -6.812e-6
0.930, 8.521e-8, -6.808e-6
0.925, 8.739e-8, -6.803e-6
0.920, 9.391e-8, -6.799e-6
0.915, 9.496e-8, -6.794e-6
0.910, 1.016e-7, -6.789e-6
0.905, 1.040e-7, -6.784e-6
0.900, 1.107e-7, -6.778e-6
0.895, 1.150e-7, -6.772e-6
0.890, 1.220e-7, -6.766e-6
0.885, 1.264e-7, -6.760e-6
0.880, 1.330e-7, -6.753e-6
0.875, 1.360e-7, -6.746e-6
0.870, 1.412e-7, -6.739e-6
0.865, 1.432e-7, -6.732e-6
0.860, 1.481e-7, -6.725e-6
0.855, 1.508e-7, -6.717e-6
0.850, 1.582e-7, -6.709e-6
0.845, 1.625e-7, -6.701e-6
0.840, 1.702e-7, -6.693e-6
0.835, 1.755e-7, -6.684e-6
0.830, 1.834e-7, -6.675e-6
0.825, 1.862e-7, -6.665e-6
0.820, 1.915e-7, -6.656e-6
0.815, 1.944e-7, -6.646e-6
0.810, 2.010e-7, -6.636e-6
0.805, 2.049e-7, -6.626e-6
0.800, 2.138e-7, -6.615e-6
0.795, 2.215e-7, -6.604e-6
0.790, 2.302e-7, -6.593e-6
0.785, 2.348e-7, -6.581e-6
0.780, 2.421e-7, -6.569e-6
0.775, 2.478e-7, -6.556e-6
0.770, 2.554e-7, -6.544e-6
0.765, 2.643e-7, -6.530e-6
0.760, 2.716e-7, -6.517e-6
0.755, 2.807e-7, -6.503e-6
0.750, 2.865e-7, -6.488e-6
0.745, 2.918e-7, -6.474e-6
0.740, 2.998e-7, -6.459e-6
0.735, 3.076e-7, -6.443e-6
0.730, 3.208e-7, -6.427e-6
0.725, 3.306e-7, -6.411e-6
0.720, 3.408e-7, -6.394e-6
0.715, 3.469e-7, -6.376e-6
0.710, 3.614e-7, -6.358e-6
0.705, 3.730e-7, -6.340e-6
0.700, 3.860e-7, -6.320e-6
0.695, 3.923e-7, -6.301e-6
0.690, 4.073e-7, -6.280e-6
0.685, 4.220e-7, -6.259e-6
0.680, 4.366e-7, -6.237e-6
0.675, 4.463e-7, -6.215e-6
0.670, 4.668e-7, -6.192e-6
0.665, 4.799e-7, -6.168e-6
0.660, 4.935e-7, -6.143e-6
0.655, 5.099e-7, -6.118e-6
0.650, 5.319e-7, -6.091e-6
0.645, 5.439e-7, -6.064e-6
0.640, 5.700e-7, -6.035e-6
0.635, 5.863e-7, -6.006e-6
0.630, 6.098e-7, -5.976e-6
0.625, 6.311e-7, -5.944e-6
0.620, 6.546e-7, -5.911e-6
0.615, 6.786e-7, -5.877e-6
0.610, 7.043e-7, -5.842e-6
0.605, 7.306e-7, -5.806e-6
0.600, 7.626e-7, -5.767e-6
0.595, 7.888e-7, -5.728e-6
0.590, 8.285e-7, -5.687e-6
0.585, 8.616e-7, -5.644e-6
0.580, 8.933e-7, -5.599e-6
0.575, 9.297e-7, -5.552e-6
0.570, 9.756e-7, -5.504e-6
0.565, 1.018e-6, -5.453e-6
0.560, 1.060e-6, -5.400e-6
0.555, 1.111e-6, -5.344e-6
0.550, 1.167e-6, -5.286e-6
0.545, 1.223e-6, -5.225e-6
0.540, 1.283e-6, -5.161e-6
0.535, 1.346e-6, -5.093e-6
0.530, 1.439e-6, -5.021e-6
0.525, 1.515e-6, -4.946e-6
0.520, 1.604e-6, -4.865e-6
0.515, 1.690e-6, -4.781e-6
0.510, 1.798e-6, -4.691e-6
0.505, 1.901e-6, -4.596e-6
0.500, 2.025e-6, -4.495e-6
0.495, 2.159e-6, -4.387e-6
0.490, 2.305e-6, -4.271e-6
0.485, 2.468e-6, -4.148e-6
0.480, 2.651e-6, -4.016e-6
0.475, 2.847e-6, -3.873e-6
0.470, 3.068e-6, -3.720e-6
0.465, 3.307e-6, -3.554e-6
0.460, 3.568e-6, -3.376e-6
0.455, 3.854e-6, -3.183e-6
0.450, 4.168e-6, -2.975e-6
0.445, 4.504e-6, -2.750e-6
0.440, 4.878e-6, -2.506e-6
0.435, 5.261e-6, -2.243e-6
0.430, 5.669e-6, -1.959e-6
0.425, 6.103e-6, -1.654e-6
0.420, 6.564e-6, -1.326e-6
0.415, 7.032e-6, -9.744e-7
0.410, 7.509e-6, -5.990e-7
0.405, 8.011e-6, -1.984e-7
0.400, 8.513e-6, 2.272e-7
0.395, 9.007e-6, 6.776e-7
0.390, 9.507e-6, 1.153e-6
0.385, 9.989e-6, 1.652e-6
0.380, 1.046e-5, 2.176e-6
0.375, 1.092e-5, 2.722e-6
0.370, 1.135e-5, 3.289e-6
0.365, 1.173e-5, 3.876e-6
0.360, 1.208e-5, 4.480e-6
0.355, 1.240e-5, 5.100e-6
0.350, 1.269e-5, 5.735e-6
0.345, 1.293e-5, 6.381e-6
0.340, 1.314e-5, 7.038e-6
0.335, 1.330e-5, 7.703e-6
0.330, 1.344e-5, 8.375e-6
0.325, 1.354e-5, 9.052e-6
0.320, 1.359e-5, 9.732e-6
0.315, 1.362e-5, 1.041e-5
0.310, 1.365e-5, 1.109e-5
0.305, 1.363e-5, 1.178e-5
0.300, 1.358e-5, 1.246e-5
0.295, 1.352e-5, 1.313e-5
0.290, 1.347e-5, 1.381e-5
0.285, 1.338e-5, 1.447e-5
0.280, 1.327e-5, 1.514e-5
0.275, 1.313e-5, 1.579e-5
0.270, 1.301e-5, 1.644e-5
0.265, 1.287e-5, 1.709e-5
0.260, 1.276e-5, 1.773e-5
0.255, 1.268e-5, 1.836e-5
0.250, 1.264e-5, 1.899e-5
0.245, 1.258e-5, 1.962e-5
0.240, 1.253e-5, 2.025e-5
0.235, 1.249e-5, 2.087e-5
0.230, 1.250e-5, 2.150e-5
0.225, 1.252e-5, 2.212e-5
0.220, 1.256e-5, 2.275e-5
0.215, 1.261e-5, 2.338e-5
0.210, 1.268e-5, 2.402e-5
0.205, 1.277e-5, 2.465e-5
0.200, 1.283e-5, 2.530e-5
0.195, 1.278e-5, 2.594e-5
0.190, 1.268e-5, 2.657e-5
0.185, 1.257e-5, 2.720e-5
0.180, 1.247e-5, 2.782e-5
0.175, 1.238e-5, 2.844e-5
0.170, 1.231e-5, 2.906e-5
0.165, 1.226e-5, 2.967e-5
0.160, 1.225e-5, 3.028e-5
0.155, 1.226e-5, 3.089e-5
0.150, 1.232e-5, 3.151e-5
0.145, 1.241e-5, 3.213e-5
0.140, 1.252e-5, 3.276e-5
0.135, 1.260e-5, 3.339e-5
0.130, 1.266e-5, 3.402e-5
0.125, 1.270e-5, 3.465e-5
0.120, 1.267e-5, 3.529e-5
0.115, 1.258e-5, 3.592e-5
0.110, 1.244e-5, 3.654e-5
0.105, 1.229e-5, 3.715e-5
0.100, 1.217e-5, 3.776e-5
0.095, 1.204e-5, 3.836e-5
0.090, 1.193e-5, 3.896e-5
0.085, 1.184e-5, 3.955e-5
0.080, 1.178e-5, 4.014e-5
0.075, 1.171e-5, 4.073e-5
0.070, 1.165e-5, 4.131e-5
0.065, 1.163e-5, 4.189e-5
0.060, 1.164e-5, 4.247e-5
0.055, 1.159e-5, 4.305e-5
0.050, 1.149e-5, 4.363e-5
0.045, 1.139e-5, 4.420e-5
0.040, 1.129e-5, 4.476e-5
0.035, 1.119e-5, 4.532e-5
0.030, 1.112e-5, 4.588e-5
0.025, 1.115e-5, 4.643e-5
0.020, 1.126e-5, 4.700e-5
0.015, 1.136e-5, 4.756e-5
0.010, 1.148e-5, 4.814e-5
0.005, 1.161e-5, 4.872e-5
0.000, 1.175e-5, 4.931e-5
-0.005, 1.181e-5, 4.990e-5
-0.010, 1.180e-5, 5.049e-5
-0.015, 1.175e-5, 5.107e-5
-0.020, 1.177e-5, 5.166e-5
-0.025, 1.187e-5, 5.226e-5
-0.030, 1.195e-5, 5.285e-5
-0.035, 1.189e-5, 5.345e-5
-0.040, 1.180e-5, 5.404e-5
-0.045, 1.167e-5, 5.462e-5
-0.050, 1.153e-5, 5.520e-5
-0.055, 1.143e-5, 5.577e-5
-0.060, 1.134e-5, 5.634e-5
-0.065, 1.125e-5, 5.690e-5
-0.070, 1.125e-5, 5.746e-5
-0.075, 1.131e-5, 5.803e-5
-0.080, 1.136e-5, 5.860e-5
-0.085, 1.136e-5, 5.916e-5
-0.090, 1.133e-5, 5.973e-5
-0.095, 1.131e-5, 6.030e-5
-0.100, 1.134e-5, 6.086e-5
-0.105, 1.145e-5, 6.144e-5
-0.110, 1.172e-5, 6.202e-5
-0.115, 1.214e-5, 6.263e-5
-0.120, 1.267e-5, 6.326e-5
-0.125, 1.321e-5, 6.392e-5
-0.130, 1.385e-5, 6.461e-5
-0.135, 1.451e-5, 6.534e-5
-0.140, 1.504e-5, 6.609e-5
-0.145, 1.549e-5, 6.687e-5
-0.150, 1.603e-5, 6.767e-5
-0.155, 1.669e-5, 6.850e-5
-0.160, 1.729e-5, 6.937e-5
-0.165, 1.767e-5, 7.025e-5
-0.170, 1.788e-5, 7.114e-5
-0.175, 1.798e-5, 7.204e-5
-0.180, 1.799e-5, 7.294e-5
-0.185, 1.796e-5, 7.384e-5
-0.190, 1.791e-5, 7.474e-5
-0.195, 1.785e-5, 7.563e-5
-0.200, 1.786e-5, 7.652e-5
-0.205, 1.789e-5, 7.742e-5
-0.210, 1.795e-5, 7.831e-5
-0.215, 1.808e-5, 7.922e-5
-0.220, 1.827e-5, 8.013e-5
-0.225, 1.849e-5, 8.106e-5
-0.230, 1.876e-5, 8.199e-5
-0.235, 1.892e-5, 8.294e-5
-0.240, 1.901e-5, 8.389e-5
-0.245, 1.899e-5, 8.484e-5
-0.250, 1.884e-5, 8.578e-5
-0.255, 1.847e-5, 8.671e-5
-0.260, 1.801e-5, 8.761e-5
-0.265, 1.750e-5, 8.848e-5
-0.270, 1.697e-5, 8.933e-5
-0.275, 1.648e-5, 9.015e-5
-0.280, 1.423e-5, 9.087e-5

Segment 3:
-0.275, 1.272e-5, 9.150e-5
-0.270, 1.224e-5, 9.211e-5
-0.265, 1.190e-5, 9.271e-5
-0.260, 1.163e-5, 9.329e-5
-0.255, 1.139e-5, 9.386e-5
-0.250, 1.117e-5, 9.442e-5
-0.245, 1.099e-5, 9.497e-5
-0.240, 1.085e-5, 9.551e-5
-0.235, 1.076e-5, 9.605e-5
-0.230, 1.065e-5, 9.658e-5
-0.225, 1.053e-5, 9.711e-5
-0.220, 1.045e-5, 9.763e-5
-0.215, 1.044e-5, 9.815e-5
-0.210, 1.051e-5, 9.868e-5
-0.205, 1.054e-5, 9.920e-5
-0.200, 1.051e-5, 9.973e-5
-0.195, 1.047e-5, 1.003e-4
-0.190, 1.041e-5, 1.008e-4
-0.185, 1.030e-5, 1.013e-4
-0.180, 1.015e-5, 1.018e-4
-0.175, 1.000e-5, 1.023e-4
-0.170, 9.884e-6, 1.028e-4
-0.165, 9.786e-6, 1.033e-4
-0.160, 9.697e-6, 1.038e-4
-0.155, 9.618e-6, 1.042e-4
-0.150, 9.561e-6, 1.047e-4
-0.145, 9.522e-6, 1.052e-4
-0.140, 9.529e-6, 1.057e-4
-0.135, 9.513e-6, 1.062e-4
-0.130, 9.497e-6, 1.066e-4
-0.125, 9.505e-6, 1.071e-4
-0.120, 9.590e-6, 1.076e-4
-0.115, 9.687e-6, 1.081e-4
-0.110, 9.774e-6, 1.086e-4
-0.105, 9.898e-6, 1.090e-4
-0.100, 1.010e-5, 1.096e-4
-0.095, 1.030e-5, 1.101e-4
-0.090, 1.052e-5, 1.106e-4
-0.085, 1.077e-5, 1.111e-4
-0.080, 1.102e-5, 1.117e-4
-0.075, 1.116e-5, 1.122e-4
-0.070, 1.126e-5, 1.128e-4
-0.065, 1.152e-5, 1.134e-4
-0.060, 1.202e-5, 1.140e-4
-0.055, 1.260e-5, 1.146e-4
-0.050, 1.316e-5, 1.153e-4
-0.045, 1.385e-5, 1.160e-4
-0.040, 1.478e-5, 1.167e-4
-0.035, 1.574e-5, 1.175e-4
-0.030, 1.654e-5, 1.183e-4
-0.025, 1.711e-5, 1.192e-4
-0.020, 1.746e-5, 1.200e-4
-0.015, 1.754e-5, 1.209e-4
-0.010, 1.733e-5, 1.218e-4
-0.005, 1.689e-5, 1.226e-4
-0.000, 1.647e-5, 1.235e-4
0.005, 1.609e-5, 1.243e-4
0.010, 1.571e-5, 1.250e-4
0.015, 1.530e-5, 1.258e-4
0.020, 1.488e-5, 1.266e-4
0.025, 1.452e-5, 1.273e-4
0.030, 1.418e-5, 1.280e-4
0.035, 1.381e-5, 1.287e-4
0.040, 1.350e-5, 1.294e-4
0.045, 1.323e-5, 1.300e-4
0.050, 1.300e-5, 1.307e-4
0.055, 1.278e-5, 1.313e-4
0.060, 1.259e-5, 1.319e-4
0.065, 1.238e-5, 1.326e-4
0.070, 1.218e-5, 1.332e-4
0.075, 1.202e-5, 1.338e-4
0.080, 1.192e-5, 1.344e-4
0.085, 1.180e-5, 1.350e-4
0.090, 1.166e-5, 1.355e-4
0.095, 1.150e-5, 1.361e-4
0.100, 1.138e-5, 1.367e-4
0.105, 1.130e-5, 1.372e-4
0.110, 1.119e-5, 1.378e-4
0.115, 1.095e-5, 1.384e-4
0.120, 1.069e-5, 1.389e-4
0.125, 1.051e-5, 1.394e-4
0.130, 1.038e-5, 1.399e-4
0.135, 1.025e-5, 1.404e-4
0.140, 1.010e-5, 1.409e-4
0.145, 9.924e-6, 1.414e-4
0.150, 9.795e-6, 1.419e-4
0.155, 9.707e-6, 1.424e-4
0.160, 9.649e-6, 1.429e-4
0.165, 9.558e-6, 1.434e-4
0.170, 9.466e-6, 1.439e-4
0.175, 9.358e-6, 1.443e-4
0.180, 9.310e-6, 1.448e-4
0.185, 9.257e-6, 1.452e-4
0.190, 9.136e-6, 1.457e-4
0.195, 9.001e-6, 1.462e-4
0.200, 8.920e-6, 1.466e-4
0.205, 8.817e-6, 1.470e-4
0.210, 8.685e-6, 1.475e-4
0.215, 8.559e-6, 1.479e-4
0.220, 8.473e-6, 1.483e-4
0.225, 8.401e-6, 1.487e-4
0.230, 8.376e-6, 1.492e-4
0.235, 8.413e-6, 1.496e-4
0.240, 8.505e-6, 1.500e-4
0.245, 8.627e-6, 1.504e-4
0.250, 8.815e-6, 1.509e-4
0.255, 9.067e-6, 1.513e-4
0.260, 9.354e-6, 1.518e-4
0.265, 9.680e-6, 1.523e-4
0.270, 1.009e-5, 1.528e-4
0.275, 1.052e-5, 1.533e-4
0.280, 1.091e-5, 1.539e-4
0.285, 1.128e-5, 1.544e-4
0.290, 1.169e-5, 1.550e-4
0.295, 1.205e-5, 1.556e-4
0.300, 1.234e-5, 1.562e-4
0.305, 1.257e-5, 1.569e-4
0.310, 1.281e-5, 1.575e-4
0.315, 1.299e-5, 1.582e-4
0.320, 1.307e-5, 1.588e-4
0.325, 1.309e-5, 1.595e-4
0.330, 1.318e-5, 1.601e-4
0.335, 1.330e-5, 1.608e-4
0.340, 1.338e-5, 1.615e-4
0.345, 1.330e-5, 1.621e-4
0.350, 1.313e-5, 1.628e-4
0.355, 1.289e-5, 1.634e-4
0.360, 1.259e-5, 1.640e-4
0.365, 1.226e-5, 1.647e-4
0.370, 1.197e-5, 1.653e-4
0.375, 1.166e-5, 1.658e-4
0.380, 1.134e-5, 1.664e-4
0.385, 1.108e-5, 1.670e-4
0.390, 1.091e-5, 1.675e-4
0.395, 1.075e-5, 1.680e-4
0.400, 1.055e-5, 1.686e-4
0.405, 1.029e-5, 1.691e-4
0.410, 1.005e-5, 1.696e-4
0.415, 9.803e-6, 1.701e-4
0.420, 9.588e-6, 1.706e-4
0.425, 9.365e-6, 1.710e-4
0.430, 9.123e-6, 1.715e-4
0.435, 8.926e-6, 1.719e-4
0.440, 8.811e-6, 1.724e-4
0.445, 8.722e-6, 1.728e-4
0.450, 8.602e-6, 1.732e-4
0.455, 8.413e-6, 1.737e-4
0.460, 8.189e-6, 1.741e-4
0.465, 7.935e-6, 1.745e-4
0.470, 7.655e-6, 1.748e-4
0.475, 7.325e-6, 1.752e-4
0.480, 6.984e-6, 1.756e-4
0.485, 6.629e-6, 1.759e-4
0.490, 6.267e-6, 1.762e-4
0.495, 5.874e-6, 1.765e-4
0.500, 5.496e-6, 1.768e-4
0.505, 5.110e-6, 1.770e-4
0.510, 4.739e-6, 1.773e-4
0.515, 4.355e-6, 1.775e-4
0.520, 4.004e-6, 1.777e-4
0.525, 3.660e-6, 1.779e-4
0.530, 3.334e-6, 1.780e-4
0.535, 3.014e-6, 1.782e-4
0.540, 2.713e-6, 1.783e-4
0.545, 2.412e-6, 1.784e-4
0.550, 2.130e-6, 1.786e-4
0.555, 1.854e-6, 1.786e-4
0.560, 1.598e-6, 1.787e-4
0.565, 1.338e-6, 1.788e-4
0.570, 1.102e-6, 1.788e-4
0.575, 8.838e-7, 1.789e-4
0.580, 6.757e-7, 1.789e-4
0.585, 4.841e-7, 1.789e-4
0.590, 3.099e-7, 1.790e-4
0.595, 1.440e-7, 1.790e-4
0.600, -3.659e-9, 1.790e-4
0.605, -1.564e-7, 1.790e-4
0.610, -2.825e-7, 1.789e-4
0.615, -4.012e-7, 1.789e-4
0.620, -5.086e-7, 1.789e-4
0.625, -6.000e-7, 1.789e-4
0.630, -6.863e-7, 1.788e-4
0.635, -7.630e-7, 1.788e-4
0.640, -8.307e-7, 1.788e-4
0.645, -8.929e-7, 1.787e-4
0.650, -9.423e-7, 1.787e-4
0.655, -9.902e-7, 1.786e-4
0.660, -1.031e-6, 1.786e-4
0.665, -1.067e-6, 1.785e-4
0.670, -1.102e-6, 1.785e-4
0.675, -1.130e-6, 1.784e-4
0.680, -1.151e-6, 1.783e-4
0.685, -1.176e-6, 1.783e-4
0.690, -1.197e-6, 1.782e-4
0.695, -1.214e-6, 1.782e-4
0.700, -1.230e-6, 1.781e-4
0.705, -1.243e-6, 1.780e-4
0.710, -1.256e-6, 1.780e-4
0.715, -1.273e-6, 1.779e-4
0.720, -1.284e-6, 1.778e-4
0.725, -1.297e-6, 1.778e-4
0.730, -1.306e-6, 1.777e-4
0.735, -1.317e-6, 1.777e-4
0.740, -1.326e-6, 1.776e-4
0.745, -1.337e-6, 1.775e-4
0.750, -1.344e-6, 1.775e-4
0.755, -1.353e-6, 1.774e-4
0.760, -1.361e-6, 1.773e-4
0.765, -1.371e-6, 1.772e-4
0.770, -1.377e-6, 1.772e-4
0.775, -1.388e-6, 1.771e-4
0.780, -1.395e-6, 1.770e-4
0.785, -1.405e-6, 1.770e-4
0.790, -1.413e-6, 1.769e-4
0.795, -1.423e-6, 1.768e-4
0.800, -1.429e-6, 1.768e-4
0.805, -1.439e-6, 1.767e-4
0.810, -1.449e-6, 1.766e-4
0.815, -1.461e-6, 1.765e-4
0.820, -1.467e-6, 1.765e-4
0.825, -1.479e-6, 1.764e-4
0.830, -1.489e-6, 1.763e-4
0.835, -1.502e-6, 1.762e-4
0.840, -1.513e-6, 1.762e-4
0.845, -1.524e-6, 1.761e-4
0.850, -1.533e-6, 1.760e-4
0.855, -1.548e-6, 1.759e-4
0.860, -1.558e-6, 1.759e-4
0.865, -1.572e-6, 1.758e-4
0.870, -1.581e-6, 1.757e-4
0.875, -1.596e-6, 1.756e-4
0.880, -1.607e-6, 1.755e-4
0.885, -1.620e-6, 1.755e-4
0.890, -1.629e-6, 1.754e-4
0.895, -1.645e-6, 1.753e-4
0.900, -1.656e-6, 1.752e-4
0.905, -1.672e-6, 1.751e-4
0.910, -1.684e-6, 1.750e-4
0.915, -1.700e-6, 1.750e-4
0.920, -1.716e-6, 1.749e-4
0.925, -1.731e-6, 1.748e-4
0.930, -1.743e-6, 1.747e-4
0.935, -1.756e-6, 1.746e-4
0.940, -1.766e-6, 1.745e-4
0.945, -1.778e-6, 1.744e-4
0.950, -1.789e-6, 1.743e-4
0.955, -1.802e-6, 1.743e-4
0.960, -1.810e-6, 1.742e-4
0.965, -1.820e-6, 1.741e-4
0.970, -1.827e-6, 1.740e-4
0.975, -1.838e-6, 1.739e-4
0.980, -1.848e-6, 1.738e-4
0.985, -1.861e-6, 1.737e-4
0.990, -1.868e-6, 1.736e-4
0.995, -1.880e-6, 1.735e-4
1.000, -1.888e-6, 1.734e-4
1.005, -1.898e-6, 1.733e-4
1.010, -1.904e-6, 1.732e-4
1.015, -1.911e-6, 1.731e-4
1.020, -1.916e-6, 1.730e-4
1.025, -1.924e-6, 1.729e-4
1.030, -1.931e-6, 1.729e-4
1.035, -1.940e-6, 1.728e-4
1.040, -1.945e-6, 1.727e-4
1.045, -1.955e-6, 1.726e-4
1.050, -1.961e-6, 1.725e-4
1.055, -1.969e-6, 1.724e-4
1.060, -1.974e-6, 1.723e-4
1.065, -1.982e-6, 1.722e-4
1.070, -1.988e-6, 1.721e-4
1.075, -1.996e-6, 1.720e-4
1.080, -2.001e-6, 1.719e-4
1.085, -2.009e-6, 1.718e-4
1.090, -2.012e-6, 1.717e-4
1.095, -2.020e-6, 1.716e-4
1.100, -2.027e-6, 1.715e-4
1.105, -2.037e-6, 1.714e-4
1.110, -2.043e-6, 1.713e-4
1.115, -2.053e-6, 1.712e-4
1.120, -2.062e-6, 1.711e-4
1.125, -2.072e-6, 1.709e-4
1.130, -2.086e-6, 1.708e-4
1.135, -2.094e-6, 1.707e-4
1.140, -2.103e-6, 1.706e-4
1.145, -2.112e-6, 1.705e-4
1.150, -1.864e-6, 1.704e-4

Segment 4:
1.145, -1.484e-6, 1.704e-4
1.140, -1.237e-6, 1.703e-4
1.135, -1.047e-6, 1.702e-4
1.130, -8.896e-7, 1.702e-4
1.125, -7.702e-7, 1.702e-4
1.120, -6.677e-7, 1.701e-4
1.115, -5.851e-7, 1.701e-4
1.110, -5.123e-7, 1.701e-4
1.105, -4.513e-7, 1.701e-4
1.100, -3.972e-7, 1.700e-4
1.095, -3.541e-7, 1.700e-4
1.090, -3.175e-7, 1.700e-4
1.085, -2.804e-7, 1.700e-4
1.080, -2.464e-7, 1.700e-4
1.075, -2.257e-7, 1.700e-4
1.070, -1.938e-7, 1.700e-4
1.065, -1.769e-7, 1.699e-4
1.060, -1.560e-7, 1.699e-4
1.055, -1.437e-7, 1.699e-4
1.050, -1.240e-7, 1.699e-4
1.045, -1.038e-7, 1.699e-4
1.040, -9.234e-8, 1.699e-4
1.035, -8.129e-8, 1.699e-4
1.030, -6.726e-8, 1.699e-4
1.025, -5.421e-8, 1.699e-4
1.020, -3.870e-8, 1.699e-4
1.015, -3.073e-8, 1.699e-4
1.010, -2.056e-8, 1.699e-4
1.005, -1.434e-8, 1.699e-4
1.000, -3.191e-9, 1.699e-4
0.995, 3.146e-9, 1.699e-4
0.990, 1.157e-8, 1.699e-4
0.985, 1.484e-8, 1.699e-4
0.980, 2.277e-8, 1.699e-4
0.975, 2.587e-8, 1.699e-4
0.970, 3.556e-8, 1.699e-4
0.965, 3.895e-8, 1.699e-4
0.960, 4.709e-8, 1.699e-4
0.955, 5.216e-8, 1.699e-4
0.950, 5.931e-8, 1.699e-4
0.945, 6.215e-8, 1.699e-4
0.940, 6.862e-8, 1.699e-4
0.935, 7.049e-8, 1.699e-4
0.930, 7.724e-8, 1.699e-4
0.925, 7.989e-8, 1.699e-4
0.920, 8.656e-8, 1.699e-4
0.915, 9.047e-8, 1.699e-4
0.910, 9.784e-8, 1.699e-4
0.905, 1.019e-7, 1.699e-4
0.900, 1.086e-7, 1.700e-4
0.895, 1.117e-7, 1.700e-4
0.890, 1.174e-7, 1.700e-4
0.885, 1.193e-7, 1.700e-4
0.880, 1.246e-7, 1.700e-4
0.875, 1.284e-7, 1.700e-4
0.870, 1.338e-7, 1.700e-4
0.865, 1.379e-7, 1.700e-4
0.860, 1.446e-7, 1.700e-4
0.855, 1.491e-7, 1.700e-4
0.850, 1.563e-7, 1.700e-4
0.845, 1.593e-7, 1.700e-4
0.840, 1.652e-7, 1.700e-4
0.835, 1.680e-7, 1.700e-4
0.830, 1.744e-7, 1.701e-4
0.825, 1.782e-7, 1.701e-4
0.820, 1.834e-7, 1.701e-4
0.815, 1.903e-7, 1.701e-4
0.810, 1.986e-7, 1.701e-4
0.805, 2.035e-7, 1.701e-4
0.800, 2.108e-7, 1.701e-4
0.795, 2.142e-7, 1.701e-4
0.790, 2.206e-7, 1.701e-4
0.785, 2.250e-7, 1.701e-4
0.780, 2.319e-7, 1.702e-4
0.775, 2.386e-7, 1.702e-4
0.770, 2.456e-7, 1.702e-4
0.765, 2.566e-7, 1.702e-4
0.760, 2.654e-7, 1.702e-4
0.755, 2.747e-7, 1.702e-4
0.750, 2.828e-7, 1.702e-4
0.745, 2.917e-7, 1.702e-4
0.740, 2.980e-7, 1.703e-4
0.735, 3.052e-7, 1.703e-4
0.730, 3.133e-7, 1.703e-4
0.725, 3.200e-7, 1.703e-4
0.720, 3.332e-7, 1.703e-4
0.715, 3.441e-7, 1.703e-4
0.710, 3.566e-7, 1.704e-4
0.705, 3.637e-7, 1.704e-4
0.700, 3.772e-7, 1.704e-4
0.695, 3.907e-7, 1.704e-4
0.690, 4.042e-7, 1.704e-4
0.685, 4.128e-7, 1.705e-4
0.680, 4.290e-7, 1.705e-4
0.675, 4.457e-7, 1.705e-4
0.670, 4.600e-7, 1.705e-4
0.665, 4.721e-7, 1.706e-4
0.660, 4.929e-7, 1.706e-4
0.655, 5.057e-7, 1.706e-4
0.650, 5.249e-7, 1.706e-4
0.645, 5.455e-7, 1.707e-4
0.640, 5.644e-7, 1.707e-4
0.635, 5.883e-7, 1.707e-4
0.630, 6.081e-7, 1.707e-4
0.625, 6.289e-7, 1.708e-4
0.620, 6.578e-7, 1.708e-4
0.615, 6.872e-7, 1.708e-4
0.610, 7.106e-7, 1.709e-4
0.605, 7.415e-7, 1.709e-4
0.600, 7.716e-7, 1.710e-4
0.595, 8.026e-7, 1.710e-4
0.590, 8.448e-7, 1.710e-4
0.585, 8.803e-7, 1.711e-4
0.580, 9.180e-7, 1.711e-4
0.575, 9.593e-7, 1.712e-4
0.570, 1.005e-6, 1.712e-4
0.565, 1.062e-6, 1.713e-4
0.560, 1.109e-6, 1.713e-4
0.555, 1.168e-6, 1.714e-4
0.550, 1.230e-6, 1.715e-4
0.545, 1.293e-6, 1.715e-4
0.540, 1.370e-6, 1.716e-4
0.535, 1.466e-6, 1.717e-4
0.530, 1.553e-6, 1.717e-4
0.525, 1.648e-6, 1.718e-4
0.520, 1.753e-6, 1.719e-4
0.515, 1.865e-6, 1.720e-4
0.510, 1.995e-6, 1.721e-4
0.505, 2.132e-6, 1.722e-4
0.500, 2.287e-6, 1.723e-4
0.495, 2.460e-6, 1.724e-4
0.490, 2.656e-6, 1.726e-4
0.485, 2.866e-6, 1.727e-4
0.480, 3.113e-6, 1.729e-4
0.475, 3.377e-6, 1.730e-4
0.470, 3.672e-6, 1.732e-4
0.465, 3.998e-6, 1.734e-4
0.460, 4.352e-6, 1.736e-4
0.455, 4.759e-6, 1.739e-4
0.450, 5.185e-6, 1.741e-4
0.445, 5.640e-6, 1.744e-4
0.440, 6.139e-6, 1.747e-4
0.435, 6.665e-6, 1.751e-4
0.430, 7.211e-6, 1.754e-4
0.425, 7.793e-6, 1.758e-4
0.420, 8.386e-6, 1.762e-4
0.415, 8.981e-6, 1.767e-4
0.410, 9.570e-6, 1.772e-4
0.405, 1.016e-5, 1.777e-4
0.400, 1.074e-5, 1.782e-4
0.395, 1.130e-5, 1.788e-4
0.390, 1.183e-5, 1.794e-4
0.385, 1.233e-5, 1.800e-4
0.380, 1.279e-5, 1.806e-4
0.375, 1.320e-5, 1.813e-4
0.370, 1.356e-5, 1.820e-4
0.365, 1.389e-5, 1.827e-4
0.360, 1.421e-5, 1.834e-4
0.355, 1.450e-5, 1.841e-4
0.350, 1.485e-5, 1.848e-4
0.345, 1.522e-5, 1.856e-4
0.340, 1.559e-5, 1.864e-4
0.335, 1.591e-5, 1.872e-4
0.330, 1.615e-5, 1.880e-4
0.325, 1.635e-5, 1.888e-4
0.320, 1.648e-5, 1.896e-4
0.315, 1.656e-5, 1.904e-4
0.310, 1.666e-5, 1.913e-4
0.305, 1.673e-5, 1.921e-4
0.300, 1.672e-5, 1.929e-4
0.295, 1.664e-5, 1.938e-4
0.290, 1.647e-5, 1.946e-4
0.285, 1.624e-5, 1.954e-4
0.280, 1.599e-5, 1.962e-4
0.275, 1.579e-5, 1.970e-4
0.270, 1.567e-5, 1.978e-4
0.265, 1.562e-5, 1.986e-4
0.260, 1.557e-5, 1.993e-4
0.255, 1.544e-5, 2.001e-4
0.250, 1.527e-5, 2.009e-4
0.245, 1.520e-5, 2.016e-4
0.240, 1.526e-5, 2.024e-4
0.235, 1.537e-5, 2.032e-4
0.230, 1.537e-5, 2.039e-4
0.225, 1.529e-5, 2.047e-4
0.220, 1.518e-5, 2.055e-4
0.215, 1.507e-5, 2.062e-4
0.210, 1.494e-5, 2.070e-4
0.205, 1.477e-5, 2.077e-4
0.200, 1.468e-5, 2.084e-4
0.195, 1.484e-5, 2.092e-4
0.190, 1.517e-5, 2.099e-4
0.185, 1.539e-5, 2.107e-4
0.180, 1.559e-5, 2.115e-4
0.175, 1.584e-5, 2.123e-4
0.170, 1.609e-5, 2.131e-4
0.165, 1.629e-5, 2.139e-4
0.160, 1.644e-5, 2.147e-4
0.155, 1.660e-5, 2.156e-4
0.150, 1.671e-5, 2.164e-4
0.145, 1.669e-5, 2.172e-4
0.140, 1.655e-5, 2.180e-4
0.135, 1.633e-5, 2.189e-4
0.130, 1.609e-5, 2.197e-4
0.125, 1.578e-5, 2.205e-4
0.120, 1.545e-5, 2.212e-4
0.115, 1.509e-5, 2.220e-4
0.110, 1.470e-5, 2.227e-4
0.105, 1.429e-5, 2.234e-4
0.100, 1.393e-5, 2.241e-4
0.095, 1.356e-5, 2.248e-4
0.090, 1.322e-5, 2.255e-4
0.085, 1.288e-5, 2.261e-4
0.080, 1.258e-5, 2.267e-4
0.075, 1.231e-5, 2.274e-4
0.070, 1.206e-5, 2.280e-4
0.065, 1.183e-5, 2.286e-4
0.060, 1.163e-5, 2.291e-4
0.055, 1.139e-5, 2.297e-4
0.050, 1.115e-5, 2.303e-4
0.045, 1.092e-5, 2.308e-4
0.040, 1.070e-5, 2.313e-4
0.035, 1.049e-5, 2.319e-4
0.030, 1.032e-5, 2.324e-4
0.025, 1.016e-5, 2.329e-4
0.020, 1.006e-5, 2.334e-4
0.015, 9.964e-6, 2.339e-4
0.010, 9.889e-6, 2.344e-4
0.005, 9.813e-6, 2.349e-4
0.000, 9.740e-6, 2.354e-4
-0.005, 9.638e-6, 2.358e-4
-0.010, 9.535e-6, 2.363e-4
-0.015, 9.450e-6, 2.368e-4
-0.020, 9.367e-6, 2.373e-4
-0.025, 9.303e-6, 2.377e-4
-0.030, 9.321e-6, 2.382e-4
-0.035, 9.419e-6, 2.387e-4
-0.040, 9.485e-6, 2.391e-4
-0.045, 9.543e-6, 2.396e-4
-0.050, 9.634e-6, 2.401e-4
-0.055, 9.857e-6, 2.406e-4
-0.060, 1.024e-5, 2.411e-4
-0.065, 1.057e-5, 2.416e-4
-0.070, 1.090e-5, 2.422e-4
-0.075, 1.119e-5, 2.427e-4
-0.080, 1.161e-5, 2.433e-4
-0.085, 1.208e-5, 2.439e-4
-0.090, 1.246e-5, 2.445e-4
-0.095, 1.274e-5, 2.452e-4
-0.100, 1.305e-5, 2.458e-4
-0.105, 1.337e-5, 2.465e-4
-0.110, 1.364e-5, 2.472e-4
-0.115, 1.384e-5, 2.479e-4
-0.120, 1.402e-5, 2.486e-4
-0.125, 1.414e-5, 2.493e-4
-0.130, 1.418e-5, 2.500e-4
-0.135, 1.416e-5, 2.507e-4
-0.140, 1.410e-5, 2.514e-4
-0.145, 1.401e-5, 2.521e-4
-0.150, 1.392e-5, 2.528e-4
-0.155, 1.389e-5, 2.535e-4
-0.160, 1.393e-5, 2.542e-4
-0.165, 1.400e-5, 2.549e-4
-0.170, 1.409e-5, 2.556e-4
-0.175, 1.418e-5, 2.563e-4
-0.180, 1.428e-5, 2.570e-4
-0.185, 1.433e-5, 2.577e-4
-0.190, 1.438e-5, 2.585e-4
-0.195, 1.447e-5, 2.592e-4
-0.200, 1.455e-5, 2.599e-4
-0.205, 1.465e-5, 2.606e-4
-0.210, 1.489e-5, 2.614e-4
-0.215, 1.517e-5, 2.621e-4
-0.220, 1.541e-5, 2.629e-4
-0.225, 1.568e-5, 2.637e-4
-0.230, 1.604e-5, 2.645e-4
-0.235, 1.639e-5, 2.653e-4
-0.240, 1.661e-5, 2.662e-4
-0.245, 1.670e-5, 2.670e-4
-0.250, 1.667e-5, 2.678e-4
-0.255, 1.657e-5, 2.686e-4
-0.260, 1.629e-5, 2.695e-4
-0.265, 1.590e-5, 2.703e-4
-0.270, 1.543e-5, 2.710e-4
-0.275, 1.497e-5, 2.718e-4
-0.280, 1.263e-5, 2.724e-4

Segment 5:
-0.275, 1.115e-5, 2.730e-4
-0.270, 1.071e-5, 2.735e-4
-0.265, 1.051e-5, 2.740e-4
-0.260, 1.046e-5, 2.746e-4
-0.255, 1.050e-5, 2.751e-4
-0.250, 1.048e-5, 2.756e-4
-0.245, 1.044e-5, 2.761e-4
-0.240, 1.046e-5, 2.766e-4
-0.235, 1.065e-5, 2.772e-4
-0.230, 1.087e-5, 2.777e-4
-0.225, 1.098e-5, 2.783e-4
-0.220, 1.098e-5, 2.788e-4
-0.215, 1.092e-5, 2.794e-4
-0.210, 1.088e-5, 2.799e-4
-0.205, 1.081e-5, 2.804e-4
-0.200, 1.079e-5, 2.810e-4
-0.195, 1.082e-5, 2.815e-4
-0.190, 1.084e-5, 2.821e-4
-0.185, 1.081e-5, 2.826e-4
-0.180, 1.074e-5, 2.831e-4
-0.175, 1.080e-5, 2.837e-4
-0.170, 1.110e-5, 2.842e-4
-0.165, 1.152e-5, 2.848e-4
-0.160, 1.193e-5, 2.854e-4
-0.155, 1.219e-5, 2.860e-4
-0.150, 1.234e-5, 2.866e-4
-0.145, 1.241e-5, 2.873e-4
-0.140, 1.241e-5, 2.879e-4
-0.135, 1.237e-5, 2.885e-4
-0.130, 1.225e-5, 2.891e-4
-0.125, 1.205e-5, 2.897e-4
-0.120, 1.179e-5, 2.903e-4
-0.115, 1.151e-5, 2.909e-4
-0.110, 1.123e-5, 2.914e-4
-0.105, 1.092e-5, 2.920e-4
-0.100, 1.063e-5, 2.925e-4
-0.095, 1.040e-5, 2.930e-4
-0.090, 1.021e-5, 2.936e-4
-0.085, 1.005e-5, 2.941e-4
-0.080, 9.926e-6, 2.946e-4
-0.075, 9.845e-6, 2.950e-4
-0.070, 9.831e-6, 2.955e-4
-0.065, 9.899e-6, 2.960e-4
-0.060, 1.013e-5, 2.965e-4
-0.055, 1.039e-5, 2.971e-4
-0.050, 1.060e-5, 2.976e-4
-0.045, 1.087e-5, 2.981e-4
-0.040, 1.139e-5, 2.987e-4
-0.035, 1.200e-5, 2.993e-4
-0.030, 1.250e-5, 2.999e-4
-0.025, 1.288e-5, 3.006e-4
-0.020, 1.333e-5, 3.012e-4
-0.015, 1.394e-5, 3.019e-4
-0.010, 1.466e-5, 3.027e-4
-0.005, 1.536e-5, 3.034e-4
-0.000, 1.594e-5, 3.042e-4
0.005, 1.643e-5, 3.051e-4
0.010, 1.673e-5, 3.059e-4
0.015, 1.681e-5, 3.067e-4
0.020, 1.667e-5, 3.076e-4
0.025, 1.636e-5, 3.084e-4
0.030, 1.599e-5, 3.092e-4
0.035, 1.567e-5, 3.100e-4
0.040, 1.530e-5, 3.107e-4
0.045, 1.488e-5, 3.115e-4
0.050, 1.446e-5, 3.122e-4
0.055, 1.409e-5, 3.129e-4
0.060, 1.366e-5, 3.136e-4
0.065, 1.323e-5, 3.142e-4
0.070, 1.282e-5, 3.149e-4
0.075, 1.247e-5, 3.155e-4
0.080, 1.224e-5, 3.161e-4
0.085, 1.221e-5, 3.167e-4
0.090, 1.229e-5, 3.173e-4
0.095, 1.243e-5, 3.180e-4
0.100, 1.253e-5, 3.186e-4
0.105, 1.253e-5, 3.192e-4
0.110, 1.240e-5, 3.198e-4
0.115, 1.219e-5, 3.205e-4
0.120, 1.199e-5, 3.210e-4
0.125, 1.191e-5, 3.216e-4
0.130, 1.197e-5, 3.222e-4
0.135, 1.219e-5, 3.229e-4
0.140, 1.254e-5, 3.235e-4
0.145, 1.303e-5, 3.241e-4
0.150, 1.369e-5, 3.248e-4
0.155, 1.463e-5, 3.255e-4
0.160, 1.550e-5, 3.263e-4
0.165, 1.609e-5, 3.271e-4
0.170, 1.655e-5, 3.280e-4
0.175, 1.697e-5, 3.288e-4
0.180, 1.739e-5, 3.297e-4
0.185, 1.773e-5, 3.306e-4
0.190, 1.778e-5, 3.314e-4
0.195, 1.754e-5, 3.323e-4
0.200, 1.720e-5, 3.332e-4
0.205, 1.674e-5, 3.340e-4
0.210, 1.613e-5, 3.348e-4
0.215, 1.556e-5, 3.356e-4
0.220, 1.517e-5, 3.364e-4
0.225, 1.489e-5, 3.371e-4
0.230, 1.463e-5, 3.378e-4
0.235, 1.446e-5, 3.386e-4
0.240, 1.455e-5, 3.393e-4
0.245, 1.486e-5, 3.400e-4
0.250, 1.516e-5, 3.408e-4
0.255, 1.552e-5, 3.416e-4
0.260, 1.603e-5, 3.424e-4
0.265, 1.664e-5, 3.432e-4
0.270, 1.709e-5, 3.441e-4
0.275, 1.709e-5, 3.449e-4
0.280, 1.667e-5, 3.457e-4
0.285, 1.618e-5, 3.466e-4
0.290, 1.577e-5, 3.473e-4
0.295, 1.537e-5, 3.481e-4
0.300, 1.492e-5, 3.489e-4
0.305, 1.447e-5, 3.496e-4
0.310, 1.409e-5, 3.503e-4
0.315, 1.380e-5, 3.510e-4
0.320, 1.363e-5, 3.517e-4
0.325, 1.351e-5, 3.523e-4
0.330, 1.338e-5, 3.530e-4
0.335, 1.336e-5, 3.537e-4
0.340, 1.339e-5, 3.543e-4
0.345, 1.336e-5, 3.550e-4
0.350, 1.324e-5, 3.557e-4
0.355, 1.305e-5, 3.563e-4
0.360, 1.274e-5, 3.570e-4
0.365, 1.233e-5, 3.576e-4
0.370, 1.191e-5, 3.582e-4
0.375, 1.157e-5, 3.587e-4
0.380, 1.127e-5, 3.593e-4
0.385, 1.089e-5, 3.599e-4
0.390, 1.041e-5, 3.604e-4
0.395, 9.960e-6, 3.609e-4
0.400, 9.535e-6, 3.614e-4
0.405, 9.140e-6, 3.618e-4
0.410, 8.743e-6, 3.622e-4
0.415, 8.371e-6, 3.627e-4
0.420, 8.063e-6, 3.631e-4
0.425, 7.811e-6, 3.635e-4
0.430, 7.547e-6, 3.638e-4
0.435, 7.309e-6, 3.642e-4
0.440, 7.070e-6, 3.646e-4
0.445, 6.851e-6, 3.649e-4
0.450, 6.627e-6, 3.652e-4
0.455, 6.413e-6, 3.655e-4
0.460, 6.206e-6, 3.659e-4
0.465, 6.027e-6, 3.662e-4
0.470, 5.880e-6, 3.665e-4
0.475, 5.770e-6, 3.667e-4
0.480, 5.688e-6, 3.670e-4
0.485, 5.642e-6, 3.673e-4
0.490, 5.603e-6, 3.676e-4
0.495, 5.542e-6, 3.679e-4
0.500, 5.421e-6, 3.681e-4
0.505, 5.260e-6, 3.684e-4
0.510, 5.055e-6, 3.687e-4
0.515, 4.824e-6, 3.689e-4
0.520, 4.531e-6, 3.691e-4
0.525, 4.206e-6, 3.693e-4
0.530, 3.847e-6, 3.695e-4
0.535, 3.491e-6, 3.697e-4
0.540, 3.131e-6, 3.699e-4
0.545, 2.793e-6, 3.700e-4
0.550, 2.466e-6, 3.701e-4
0.555, 2.155e-6, 3.702e-4
0.560, 1.856e-6, 3.703e-4
0.565, 1.580e-6, 3.704e-4
0.570, 1.290e-6, 3.705e-4
0.575, 1.045e-6, 3.705e-4
0.580, 8.074e-7, 3.706e-4
0.585, 5.894e-7, 3.706e-4
0.590, 3.878e-7, 3.706e-4
0.595, 2.097e-7, 3.706e-4
0.600, 3.625e-8, 3.706e-4
0.605, -1.235e-7, 3.706e-4
0.610, -2.652e-7, 3.706e-4
0.615, -3.849e-7, 3.706e-4
0.620, -5.017e-7, 3.706e-4
0.625, -6.011e-7, 3.705e-4
0.630, -6.920e-7, 3.705e-4
0.635, -7.656e-7, 3.704e-4
0.640, -8.411e-7, 3.704e-4
0.645, -9.004e-7, 3.704e-4
0.650, -9.521e-7, 3.703e-4
0.655, -9.997e-7, 3.703e-4
0.660, -1.043e-6, 3.702e-4
0.665, -1.077e-6, 3.702e-4
0.670, -1.112e-6, 3.701e-4
0.675, -1.134e-6, 3.700e-4
0.680, -1.160e-6, 3.700e-4
0.685, -1.180e-6, 3.699e-4
0.690, -1.203e-6, 3.699e-4
0.695, -1.220e-6, 3.698e-4
0.700, -1.234e-6, 3.697e-4
0.705, -1.244e-6, 3.697e-4
0.710, -1.262e-6, 3.696e-4
0.715, -1.274e-6, 3.696e-4
0.720, -1.286e-6, 3.695e-4
0.725, -1.294e-6, 3.694e-4
0.730, -1.304e-6, 3.694e-4
0.735, -1.314e-6, 3.693e-4
0.740, -1.322e-6, 3.692e-4
0.745, -1.328e-6, 3.692e-4
0.750, -1.338e-6, 3.691e-4
0.755, -1.345e-6, 3.690e-4
0.760, -1.358e-6, 3.690e-4
0.765, -1.364e-6, 3.689e-4
0.770, -1.373e-6, 3.688e-4
0.775, -1.378e-6, 3.688e-4
0.780, -1.389e-6, 3.687e-4
0.785, -1.398e-6, 3.686e-4
0.790, -1.411e-6, 3.685e-4
0.795, -1.418e-6, 3.685e-4
0.800, -1.425e-6, 3.684e-4
0.805, -1.431e-6, 3.683e-4
0.810, -1.446e-6, 3.683e-4
0.815, -1.458e-6, 3.682e-4
0.820, -1.466e-6, 3.681e-4
0.825, -1.473e-6, 3.680e-4
0.830, -1.488e-6, 3.680e-4
0.835, -1.502e-6, 3.679e-4
0.840, -1.514e-6, 3.678e-4
0.845, -1.520e-6, 3.677e-4
0.850, -1.531e-6, 3.677e-4
0.855, -1.545e-6, 3.676e-4
0.860, -1.561e-6, 3.675e-4
0.865, -1.568e-6, 3.674e-4
0.870, -1.580e-6, 3.673e-4
0.875, -1.595e-6, 3.673e-4
0.880, -1.609e-6, 3.672e-4
0.885, -1.616e-6, 3.671e-4
0.890, -1.627e-6, 3.670e-4
0.895, -1.642e-6, 3.669e-4
0.900, -1.659e-6, 3.669e-4
0.905, -1.667e-6, 3.668e-4
0.910, -1.679e-6, 3.667e-4
0.915, -1.693e-6, 3.666e-4
0.920, -1.708e-6, 3.665e-4
0.925, -1.718e-6, 3.664e-4
0.930, -1.735e-6, 3.664e-4
0.935, -1.747e-6, 3.663e-4
0.940, -1.759e-6, 3.662e-4
0.945, -1.764e-6, 3.661e-4
0.950, -1.776e-6, 3.660e-4
0.955, -1.785e-6, 3.659e-4
0.960, -1.798e-6, 3.658e-4
0.965, -1.805e-6, 3.657e-4
0.970, -1.810e-6, 3.656e-4
0.975, -1.813e-6, 3.655e-4
0.980, -1.821e-6, 3.655e-4
0.985, -1.827e-6, 3.654e-4
0.990, -1.841e-6, 3.653e-4
0.995, -1.849e-6, 3.652e-4
1.000, -1.858e-6, 3.651e-4
1.005, -1.861e-6, 3.650e-4
1.010, -1.867e-6, 3.649e-4
1.015, -1.872e-6, 3.648e-4
1.020, -1.882e-6, 3.647e-4
1.025, -1.888e-6, 3.646e-4
1.030, -1.898e-6, 3.645e-4
1.035, -1.902e-6, 3.644e-4
1.040, -1.906e-6, 3.643e-4
1.045, -1.907e-6, 3.642e-4
1.050, -1.910e-6, 3.641e-4
1.055, -1.912e-6, 3.640e-4
1.060, -1.917e-6, 3.640e-4
1.065, -1.921e-6, 3.639e-4
1.070, -1.931e-6, 3.638e-4
1.075, -1.936e-6, 3.637e-4
1.080, -1.947e-6, 3.636e-4
1.085, -1.950e-6, 3.635e-4
1.090, -1.956e-6, 3.634e-4
1.095, -1.958e-6, 3.633e-4
1.100, -1.966e-6, 3.632e-4
1.105, -1.971e-6, 3.631e-4
1.110, -1.985e-6, 3.630e-4
1.115, -1.994e-6, 3.629e-4
1.120, -2.002e-6, 3.628e-4
1.125, -2.006e-6, 3.627e-4
1.130, -2.013e-6, 3.626e-4
1.135, -2.023e-6, 3.625e-4
1.140, -2.042e-6, 3.624e-4
1.145, -2.055e-6, 3.623e-4
1.150, -1.796e-6, 3.622e-4

Segment 6:
1.145, -1.423e-6, 3.621e-4
1.140, -1.186e-6, 3.621e-4
1.135, -9.976e-7, 3.620e-4
1.130, -8.517e-7, 3.620e-4
1.125, -7.315e-7, 3.619e-4
1.120, -6.380e-7, 3.619e-4
1.115, -5.540e-7, 3.619e-4
1.110, -4.865e-7, 3.618e-4
1.105, -4.282e-7, 3.618e-4
1.100, -3.790e-7, 3.618e-4
1.095, -3.363e-7, 3.618e-4
1.090, -2.981e-7, 3.618e-4
1.085, -2.597e-7, 3.618e-4
1.080, -2.385e-7, 3.617e-4
1.075, -2.057e-7, 3.617e-4
1.070, -1.879e-7, 3.617e-4
1.065, -1.589e-7, 3.617e-4
1.060, -1.456e-7, 3.617e-4
1.055, -1.311e-7, 3.617e-4
1.050, -1.150e-7, 3.617e-4
1.045, -1.038e-7, 3.617e-4
1.040, -9.104e-8, 3.617e-4
1.035, -7.005e-8, 3.617e-4
1.030, -5.865e-8, 3.617e-4
1.025, -4.504e-8, 3.617e-4
1.020, -3.656e-8, 3.617e-4
1.015, -2.025e-8, 3.617e-4
1.010, -1.218e-8, 3.617e-4
1.005, -4.674e-9, 3.617e-4
1.000, -1.790e-9, 3.617e-4
0.995, 4.628e-9, 3.617e-4
0.990, 9.381e-9, 3.617e-4
0.985, 2.070e-8, 3.617e-4
0.980, 2.719e-8, 3.617e-4
0.975, 3.667e-8, 3.617e-4
0.970, 4.035e-8, 3.617e-4
0.965, 4.558e-8, 3.617e-4
0.960, 4.676e-8, 3.617e-4
0.955, 5.277e-8, 3.617e-4
0.950, 5.591e-8, 3.617e-4
0.945, 6.402e-8, 3.617e-4
0.940, 6.914e-8, 3.617e-4
0.935, 7.849e-8, 3.617e-4
0.930, 8.252e-8, 3.617e-4
0.925, 8.914e-8, 3.617e-4
0.920, 9.059e-8, 3.617e-4
0.915, 9.555e-8, 3.617e-4
0.910, 9.659e-8, 3.617e-4
0.905, 1.019e-7, 3.617e-4
0.900, 1.047e-7, 3.617e-4
0.895, 1.129e-7, 3.617e-4
0.890, 1.165e-7, 3.617e-4
0.885, 1.257e-7, 3.617e-4
0.880, 1.305e-7, 3.618e-4
0.875, 1.370e-7, 3.618e-4
0.870, 1.388e-7, 3.618e-4
0.865, 1.430e-7, 3.618e-4
0.860, 1.444e-7, 3.618e-4
0.855, 1.497e-7, 3.618e-4
0.850, 1.521e-7, 3.618e-4
0.845, 1.613e-7, 3.618e-4
0.840, 1.656e-7, 3.618e-4
0.835, 1.756e-7, 3.618e-4
0.830, 1.795e-7, 3.618e-4
0.825, 1.873e-7, 3.618e-4
0.820, 1.876e-7, 3.619e-4
0.815, 1.943e-7, 3.619e-4
0.810, 1.957e-7, 3.619e-4
0.805, 2.035e-7, 3.619e-4
0.800, 2.081e-7, 3.619e-4
0.795, 2.215e-7, 3.619e-4
0.790, 2.259e-7, 3.619e-4
0.785, 2.360e-7, 3.619e-4
0.780, 2.402e-7, 3.619e-4
0.775, 2.472e-7, 3.620e-4
0.770, 2.531e-7, 3.620e-4
0.765, 2.622e-7, 3.620e-4
0.760, 2.697e-7, 3.620e-4
0.755, 2.752e-7, 3.620e-4
0.750, 2.844e-7, 3.620e-4
0.745, 2.904e-7, 3.620e-4
0.740, 2.960e-7, 3.620e-4
0.735, 3.077e-7, 3.621e-4
0.730, 3.172e-7, 3.621e-4
0.725, 3.315e-7, 3.621e-4
0.720, 3.378e-7, 3.621e-4
0.715, 3.476e-7, 3.621e-4
0.710, 3.572e-7, 3.621e-4
0.705, 3.753e-7, 3.622e-4
0.700, 3.845e-7, 3.622e-4
0.695, 3.936e-7, 3.622e-4
0.690, 4.052e-7, 3.622e-4
0.685, 4.256e-7, 3.622e-4
0.680, 4.355e-7, 3.623e-4
0.675, 4.506e-7, 3.623e-4
0.670, 4.686e-7, 3.623e-4
0.665, 4.844e-7, 3.623e-4
0.660, 4.940e-7, 3.624e-4
0.655, 5.188e-7, 3.624e-4
0.650, 5.338e-7, 3.624e-4
0.645, 5.539e-7, 3.624e-4
0.640, 5.776e-7, 3.625e-4
0.635, 5.962e-7, 3.625e-4
0.630, 6.224e-7, 3.625e-4
0.625, 6.454e-7, 3.626e-4
0.620, 6.707e-7, 3.626e-4
0.615, 6.949e-7, 3.626e-4
0.610, 7.262e-7, 3.627e-4
0.605, 7.557e-7, 3.627e-4
0.600, 7.840e-7, 3.627e-4
0.595, 8.254e-7, 3.628e-4
0.590, 8.636e-7, 3.628e-4
0.585, 8.960e-7, 3.629e-4
0.580, 9.355e-7, 3.629e-4
0.575, 9.846e-7, 3.630e-4
0.570, 1.033e-6, 3.630e-4
0.565, 1.079e-6, 3.631e-4
0.560, 1.135e-6, 3.631e-4
0.555, 1.197e-6, 3.632e-4
0.550, 1.259e-6, 3.633e-4
0.545, 1.330e-6, 3.633e-4
0.540, 1.419e-6, 3.634e-4
0.535, 1.511e-6, 3.635e-4
0.530, 1.595e-6, 3.636e-4
0.525, 1.701e-6, 3.636e-4
0.520, 1.808e-6, 3.637e-4
0.515, 1.930e-6, 3.638e-4
0.510, 2.063e-6, 3.639e-4
0.505, 2.210e-6, 3.640e-4
0.500, 2.373e-6, 3.642e-4
0.495, 2.558e-6, 3.643e-4
0.490, 2.767e-6, 3.644e-4
0.485, 3.007e-6, 3.646e-4
0.480, 3.262e-6, 3.647e-4
0.475, 3.555e-6, 3.649e-4
0.470, 3.876e-6, 3.651e-4
0.465, 4.235e-6, 3.653e-4
0.460, 4.639e-6, 3.655e-4
0.455, 5.079e-6, 3.658e-4
0.450, 5.545e-6, 3.661e-4
0.445, 6.058e-6, 3.664e-4
0.440, 6.609e-6, 3.667e-4
0.435, 7.191e-6, 3.671e-4
0.430, 7.808e-6, 3.675e-4
0.425, 8.441e-6, 3.679e-4
0.420, 9.077e-6, 3.683e-4
0.415, 9.732e-6, 3.688e-4
0.410, 1.036e-5, 3.693e-4
0.405, 1.102e-5, 3.699e-4
0.400, 1.164e-5, 3.705e-4
0.395, 1.225e-5, 3.711e-4
0.390, 1.282e-5, 3.717e-4
0.385, 1.334e-5, 3.724e-4
0.380, 1.379e-5, 3.731e-4
0.375, 1.418e-5, 3.738e-4
0.370, 1.448e-5, 3.745e-4
0.365, 1.473e-5, 3.753e-4
0.360, 1.490e-5, 3.760e-4
0.355, 1.502e-5, 3.768e-4
0.350, 1.508e-5, 3.775e-4
0.345, 1.510e-5, 3.783e-4
0.340, 1.510e-5, 3.790e-4
0.335, 1.507e-5, 3.798e-4
0.330, 1.500e-5, 3.805e-4
0.325, 1.492e-5, 3.813e-4
0.320, 1.483e-5, 3.820e-4
0.315, 1.468e-5, 3.827e-4
0.310, 1.449e-5, 3.835e-4
0.305, 1.433e-5, 3.842e-4
0.300, 1.424e-5, 3.849e-4
0.295, 1.420e-5, 3.856e-4
0.290, 1.410e-5, 3.863e-4
0.285, 1.402e-5, 3.870e-4
0.280, 1.402e-5, 3.877e-4
0.275, 1.412e-5, 3.884e-4
0.270, 1.417e-5, 3.891e-4
0.265, 1.411e-5, 3.898e-4
0.260, 1.400e-5, 3.905e-4
0.255, 1.390e-5, 3.912e-4
0.250, 1.380e-5, 3.919e-4
0.245, 1.359e-5, 3.926e-4
0.240, 1.328e-5, 3.933e-4
0.235, 1.297e-5, 3.939e-4
0.230, 1.272e-5, 3.945e-4
0.225, 1.257e-5, 3.952e-4
0.220, 1.247e-5, 3.958e-4
0.215, 1.226e-5, 3.964e-4
0.210, 1.194e-5, 3.970e-4
0.205, 1.167e-5, 3.976e-4
0.200, 1.151e-5, 3.982e-4
0.195, 1.143e-5, 3.987e-4
0.190, 1.140e-5, 3.993e-4
0.185, 1.141e-5, 3.999e-4
0.180, 1.156e-5, 4.005e-4
0.175, 1.197e-5, 4.011e-4
0.170, 1.249e-5, 4.017e-4
0.165, 1.279e-5, 4.023e-4
0.160, 1.289e-5, 4.030e-4
0.155, 1.304e-5, 4.036e-4
0.150, 1.323e-5, 4.043e-4
0.145, 1.343e-5, 4.049e-4
0.140, 1.345e-5, 4.056e-4
0.135, 1.338e-5, 4.063e-4
0.130, 1.327e-5, 4.070e-4
0.125, 1.323e-5, 4.076e-4
0.120, 1.326e-5, 4.083e-4
0.115, 1.331e-5, 4.089e-4
0.110, 1.323e-5, 4.096e-4
0.105, 1.306e-5, 4.103e-4
0.100, 1.289e-5, 4.109e-4
0.095, 1.276e-5, 4.115e-4
0.090, 1.266e-5, 4.122e-4
0.085, 1.263e-5, 4.128e-4
0.080, 1.264e-5, 4.134e-4
0.075, 1.272e-5, 4.141e-4
0.070, 1.290e-5, 4.147e-4
0.065, 1.317e-5, 4.154e-4
0.060, 1.349e-5, 4.161e-4
0.055, 1.381e-5, 4.167e-4
0.050, 1.412e-5, 4.174e-4
0.045, 1.442e-5, 4.182e-4
0.040, 1.471e-5, 4.189e-4
0.035, 1.494e-5, 4.197e-4
0.030, 1.508e-5, 4.204e-4
0.025, 1.514e-5, 4.212e-4
0.020, 1.520e-5, 4.219e-4
0.015, 1.523e-5, 4.227e-4
0.010, 1.529e-5, 4.234e-4
0.005, 1.558e-5, 4.242e-4
0.000, 1.594e-5, 4.250e-4
-0.005, 1.620e-5, 4.258e-4
-0.010, 1.636e-5, 4.267e-4
-0.015, 1.661e-5, 4.275e-4
-0.020, 1.695e-5, 4.283e-4
-0.025, 1.716e-5, 4.292e-4
-0.030, 1.720e-5, 4.300e-4
-0.035, 1.713e-5, 4.309e-4
-0.040, 1.697e-5, 4.318e-4
-0.045, 1.669e-5, 4.326e-4
-0.050, 1.629e-5, 4.334e-4
-0.055, 1.586e-5, 4.342e-4
-0.060, 1.546e-5, 4.350e-4
-0.065, 1.507e-5, 4.357e-4
-0.070, 1.469e-5, 4.365e-4
-0.075, 1.434e-5, 4.372e-4
-0.080, 1.402e-5, 4.379e-4
-0.085, 1.369e-5, 4.386e-4
-0.090, 1.341e-5, 4.392e-4
-0.095, 1.314e-5, 4.399e-4
-0.100, 1.290e-5, 4.405e-4
-0.105, 1.265e-5, 4.412e-4
-0.110, 1.243e-5, 4.418e-4
-0.115, 1.218e-5, 4.424e-4
-0.120, 1.195e-5, 4.430e-4
-0.125, 1.176e-5, 4.436e-4
-0.130, 1.173e-5, 4.442e-4
-0.135, 1.183e-5, 4.448e-4
-0.140, 1.191e-5, 4.454e-4
-0.145, 1.197e-5, 4.460e-4
-0.150, 1.215e-5, 4.466e-4
-0.155, 1.254e-5, 4.472e-4
-0.160, 1.295e-5, 4.478e-4
-0.165, 1.314e-5, 4.485e-4
-0.170, 1.325e-5, 4.492e-4
-0.175, 1.352e-5, 4.498e-4
-0.180, 1.395e-5, 4.505e-4
-0.185, 1.426e-5, 4.512e-4
-0.190, 1.440e-5, 4.520e-4
-0.195, 1.455e-5, 4.527e-4
-0.200, 1.474e-5, 4.534e-4
-0.205, 1.501e-5, 4.542e-4
-0.210, 1.524e-5, 4.549e-4
-0.215, 1.539e-5, 4.557e-4
-0.220, 1.553e-5, 4.565e-4
-0.225, 1.575e-5, 4.573e-4
-0.230, 1.604e-5, 4.581e-4
-0.235, 1.629e-5, 4.589e-4
-0.240, 1.642e-5, 4.597e-4
-0.245, 1.662e-5, 4.605e-4
-0.250, 1.696e-5, 4.614e-4
-0.255, 1.728e-5, 4.623e-4
-0.260, 1.736e-5, 4.631e-4
-0.265, 1.740e-5, 4.640e-4
-0.270, 1.758e-5, 4.649e-4
-0.275, 1.779e-5, 4.658e-4
-0.280, 1.594e-5, 4.666e-4

Segment 7:
-0.275, 1.484e-5, 4.673e-4
-0.270, 1.470e-5, 4.680e-4
-0.265, 1.473e-5, 4.688e-4
-0.260, 1.464e-5, 4.695e-4
-0.255, 1.440e-5, 4.702e-4
-0.250, 1.426e-5, 4.709e-4
-0.245, 1.429e-5, 4.716e-4
-0.240, 1.425e-5, 4.724e-4
-0.235, 1.403e-5, 4.731e-4
-0.230, 1.390e-5, 4.738e-4
-0.225, 1.403e-5, 4.745e-4
-0.220, 1.424e-5, 4.752e-4
-0.215, 1.433e-5, 4.759e-4
-0.210, 1.437e-5, 4.766e-4
-0.205, 1.443e-5, 4.773e-4
-0.200, 1.454e-5, 4.781e-4
-0.195, 1.459e-5, 4.788e-4
-0.190, 1.452e-5, 4.795e-4
-0.185, 1.436e-5, 4.802e-4
-0.180, 1.423e-5, 4.809e-4
-0.175, 1.426e-5, 4.817e-4
-0.170, 1.437e-5, 4.824e-4
-0.165, 1.454e-5, 4.831e-4
-0.160, 1.481e-5, 4.838e-4
-0.155, 1.519e-5, 4.846e-4
-0.150, 1.556e-5, 4.854e-4
-0.145, 1.586e-5, 4.862e-4
-0.140, 1.610e-5, 4.870e-4
-0.135, 1.628e-5, 4.878e-4
-0.130, 1.619e-5, 4.886e-4
-0.125, 1.597e-5, 4.894e-4
-0.120, 1.584e-5, 4.902e-4
-0.115, 1.586e-5, 4.910e-4
-0.110, 1.587e-5, 4.918e-4
-0.105, 1.591e-5, 4.926e-4
-0.100, 1.609e-5, 4.934e-4
-0.095, 1.624e-5, 4.942e-4
-0.090, 1.608e-5, 4.950e-4
-0.085, 1.571e-5, 4.958e-4
-0.080, 1.543e-5, 4.965e-4
-0.075, 1.538e-5, 4.973e-4
-0.070, 1.538e-5, 4.981e-4
-0.065, 1.534e-5, 4.989e-4
-0.060, 1.529e-5, 4.996e-4
-0.055, 1.520e-5, 5.004e-4
-0.050, 1.498e-5, 5.011e-4
-0.045, 1.485e-5, 5.019e-4
-0.040, 1.494e-5, 5.026e-4
-0.035, 1.504e-5, 5.034e-4
-0.030, 1.504e-5, 5.041e-4
-0.025, 1.511e-5, 5.049e-4
-0.020, 1.535e-5, 5.056e-4
-0.015, 1.579e-5, 5.064e-4
-0.010, 1.628e-5, 5.072e-4
-0.005, 1.677e-5, 5.081e-4
-0.000, 1.732e-5, 5.089e-4
0.005, 1.786e-5, 5.098e-4
0.010, 1.823e-5, 5.108e-4
0.015, 1.833e-5, 5.117e-4
0.020, 1.835e-5, 5.126e-4
0.025, 1.837e-5, 5.135e-4
0.030, 1.830e-5, 5.144e-4
0.035, 1.812e-5, 5.153e-4
0.040, 1.807e-5, 5.162e-4
0.045, 1.836e-5, 5.171e-4
0.050, 1.877e-5, 5.181e-4
0.055, 1.903e-5, 5.190e-4
0.060, 1.923e-5, 5.200e-4
0.065, 1.942e-5, 5.210e-4
0.070, 1.949e-5, 5.219e-4
0.075, 1.934e-5, 5.229e-4
0.080, 1.901e-5, 5.239e-4
0.085, 1.865e-5, 5.248e-4
0.090, 1.834e-5, 5.257e-4
0.095, 1.816e-5, 5.266e-4
0.100, 1.802e-5, 5.275e-4
0.105, 1.785e-5, 5.284e-4
0.110, 1.760e-5, 5.293e-4
0.115, 1.734e-5, 5.302e-4
0.120, 1.697e-5, 5.310e-4
0.125, 1.646e-5, 5.318e-4
0.130, 1.596e-5, 5.326e-4
0.135, 1.562e-5, 5.334e-4
0.140, 1.554e-5, 5.342e-4
0.145, 1.568e-5, 5.350e-4
0.150, 1.577e-5, 5.358e-4
0.155, 1.565e-5, 5.365e-4
0.160, 1.548e-5, 5.373e-4
0.165, 1.537e-5, 5.381e-4
0.170, 1.532e-5, 5.389e-4
0.175, 1.543e-5, 5.396e-4
0.180, 1.567e-5, 5.404e-4
0.185, 1.593e-5, 5.412e-4
0.190, 1.610e-5, 5.420e-4
0.195, 1.612e-5, 5.428e-4
0.200, 1.600e-5, 5.436e-4
0.205, 1.586e-5, 5.444e-4
0.210, 1.565e-5, 5.452e-4
0.215, 1.535e-5, 5.460e-4
0.220, 1.499e-5, 5.467e-4
0.225, 1.460e-5, 5.474e-4
0.230, 1.418e-5, 5.481e-4
0.235, 1.377e-5, 5.488e-4
0.240, 1.336e-5, 5.495e-4
0.245, 1.302e-5, 5.502e-4
0.250, 1.268e-5, 5.508e-4
0.255, 1.233e-5, 5.514e-4
0.260, 1.202e-5, 5.520e-4
0.265, 1.179e-5, 5.526e-4
0.270, 1.158e-5, 5.532e-4
0.275, 1.143e-5, 5.537e-4
0.280, 1.126e-5, 5.543e-4
0.285, 1.111e-5, 5.549e-4
0.290, 1.101e-5, 5.554e-4
0.295, 1.097e-5, 5.560e-4
0.300, 1.093e-5, 5.565e-4
0.305, 1.087e-5, 5.571e-4
0.310, 1.078e-5, 5.576e-4
0.315, 1.074e-5, 5.581e-4
0.320, 1.067e-5, 5.587e-4
0.325, 1.057e-5, 5.592e-4
0.330, 1.037e-5, 5.597e-4
0.335, 1.015e-5, 5.602e-4
0.340, 9.946e-6, 5.607e-4
0.345, 9.761e-6, 5.612e-4
0.350, 9.584e-6, 5.617e-4
0.355, 9.440e-6, 5.622e-4
0.360, 9.335e-6, 5.626e-4
0.365, 9.343e-6, 5.631e-4
0.370, 9.483e-6, 5.636e-4
0.375, 9.715e-6, 5.640e-4
0.380, 9.899e-6, 5.645e-4
0.385, 9.979e-6, 5.650e-4
0.390, 9.937e-6, 5.655e-4
0.395, 9.773e-6, 5.660e-4
0.400, 9.540e-6, 5.665e-4
0.405, 9.319e-6, 5.670e-4
0.410, 9.082e-6, 5.674e-4
0.415, 8.793e-6, 5.679e-4
0.420, 8.452e-6, 5.683e-4
0.425, 8.109e-6, 5.687e-4
0.430, 7.764e-6, 5.691e-4
0.435, 7.420e-6, 5.694e-4
0.440, 7.096e-6, 5.698e-4
0.445, 6.784e-6, 5.701e-4
0.450, 6.472e-6, 5.705e-4
0.455, 6.170e-6, 5.708e-4
0.460, 5.857e-6, 5.711e-4
0.465, 5.567e-6, 5.713e-4
0.470, 5.281e-6, 5.716e-4
0.475, 5.006e-6, 5.719e-4
0.480, 4.732e-6, 5.721e-4
0.485, 4.465e-6, 5.723e-4
0.490, 4.212e-6, 5.725e-4
0.495, 3.969e-6, 5.727e-4
0.500, 3.732e-6, 5.729e-4
0.505, 3.498e-6, 5.731e-4
0.510, 3.260e-6, 5.733e-4
0.515, 3.032e-6, 5.734e-4
0.520, 2.795e-6, 5.735e-4
0.525, 2.567e-6, 5.737e-4
0.530, 2.332e-6, 5.738e-4
0.535, 2.107e-6, 5.739e-4
0.540, 1.881e-6, 5.740e-4
0.545, 1.658e-6, 5.741e-4
0.550, 1.438e-6, 5.741e-4
0.555, 1.222e-6, 5.742e-4
0.560, 1.024e-6, 5.743e-4
0.565, 8.465e-7, 5.743e-4
0.570, 6.686e-7, 5.743e-4
0.575, 5.050e-7, 5.744e-4
0.580, 3.495e-7, 5.744e-4
0.585, 1.995e-7, 5.744e-4
0.590, 5.507e-8, 5.744e-4
0.595, -9.094e-8, 5.744e-4
0.600, -2.205e-7, 5.744e-4
0.605, -3.332e-7, 5.744e-4
0.610, -4.451e-7, 5.743e-4
0.615, -5.465e-7, 5.743e-4
0.620, -6.401e-7, 5.743e-4
0.625, -7.227e-7, 5.742e-4
0.630, -8.030e-7, 5.742e-4
0.635, -8.663e-7, 5.742e-4
0.640, -9.310e-7, 5.741e-4
0.645, -9.831e-7, 5.741e-4
0.650, -1.032e-6, 5.740e-4
0.655, -1.072e-6, 5.740e-4
0.660, -1.114e-6, 5.739e-4
0.665, -1.141e-6, 5.738e-4
0.670, -1.172e-6, 5.738e-4
0.675, -1.195e-6, 5.737e-4
0.680, -1.218e-6, 5.737e-4
0.685, -1.235e-6, 5.736e-4
0.690, -1.256e-6, 5.735e-4
0.695, -1.268e-6, 5.735e-4
0.700, -1.288e-6, 5.734e-4
0.705, -1.296e-6, 5.733e-4
0.710, -1.308e-6, 5.733e-4
0.715, -1.318e-6, 5.732e-4
0.720, -1.330e-6, 5.731e-4
0.725, -1.339e-6, 5.731e-4
0.730, -1.348e-6, 5.730e-4
0.735, -1.355e-6, 5.729e-4
0.740, -1.366e-6, 5.729e-4
0.745, -1.371e-6, 5.728e-4
0.750, -1.382e-6, 5.727e-4
0.755, -1.386e-6, 5.727e-4
0.760, -1.397e-6, 5.726e-4
0.765, -1.400e-6, 5.725e-4
0.770, -1.409e-6, 5.725e-4
0.775, -1.413e-6, 5.724e-4
0.780, -1.421e-6, 5.723e-4
0.785, -1.424e-6, 5.722e-4
0.790, -1.433e-6, 5.722e-4
0.795, -1.440e-6, 5.721e-4
0.800, -1.450e-6, 5.720e-4
0.805, -1.455e-6, 5.720e-4
0.810, -1.465e-6, 5.719e-4
0.815, -1.470e-6, 5.718e-4
0.820, -1.478e-6, 5.717e-4
0.825, -1.488e-6, 5.717e-4
0.830, -1.501e-6, 5.716e-4
0.835, -1.507e-6, 5.715e-4
0.840, -1.517e-6, 5.714e-4
0.845, -1.523e-6, 5.714e-4
0.850, -1.537e-6, 5.713e-4
0.855, -1.547e-6, 5.712e-4
0.860, -1.560e-6, 5.711e-4
0.865, -1.566e-6, 5.710e-4
0.870, -1.579e-6, 5.710e-4
0.875, -1.591e-6, 5.709e-4
0.880, -1.605e-6, 5.708e-4
0.885, -1.610e-6, 5.707e-4
0.890, -1.622e-6, 5.706e-4
0.895, -1.634e-6, 5.706e-4
0.900, -1.649e-6, 5.705e-4
0.905, -1.657e-6, 5.704e-4
0.910, -1.668e-6, 5.703e-4
0.915, -1.680e-6, 5.702e-4
0.920, -1.695e-6, 5.701e-4
0.925, -1.705e-6, 5.701e-4
0.930, -1.719e-6, 5.700e-4
0.935, -1.729e-6, 5.699e-4
0.940, -1.745e-6, 5.698e-4
0.945, -1.752e-6, 5.697e-4
0.950, -1.762e-6, 5.696e-4
0.955, -1.766e-6, 5.695e-4
0.960, -1.779e-6, 5.695e-4
0.965, -1.788e-6, 5.694e-4
0.970, -1.798e-6, 5.693e-4
0.975, -1.803e-6, 5.692e-4
0.980, -1.810e-6, 5.691e-4
0.985, -1.813e-6, 5.690e-4
0.990, -1.821e-6, 5.689e-4
0.995, -1.827e-6, 5.688e-4
1.000, -1.839e-6, 5.687e-4
1.005, -1.844e-6, 5.686e-4
1.010, -1.854e-6, 5.685e-4
1.015, -1.856e-6, 5.684e-4
1.020, -1.863e-6, 5.684e-4
1.025, -1.866e-6, 5.683e-4
1.030, -1.874e-6, 5.682e-4
1.035, -1.877e-6, 5.681e-4
1.040, -1.886e-6, 5.680e-4
1.045, -1.891e-6, 5.679e-4
1.050, -1.899e-6, 5.678e-4
1.055, -1.901e-6, 5.677e-4
1.060, -1.906e-6, 5.676e-4
1.065, -1.906e-6, 5.675e-4
1.070, -1.911e-6, 5.674e-4
1.075, -1.912e-6, 5.673e-4
1.080, -1.918e-6, 5.672e-4
1.085, -1.921e-6, 5.671e-4
1.090, -1.932e-6, 5.670e-4
1.095, -1.938e-6, 5.669e-4
1.100, -1.949e-6, 5.668e-4
1.105, -1.952e-6, 5.667e-4
1.110, -1.959e-6, 5.666e-4
1.115, -1.963e-6, 5.665e-4
1.120, -1.975e-6, 5.664e-4
1.125, -1.987e-6, 5.663e-4
1.130, -1.999e-6, 5.662e-4
1.135, -2.004e-6, 5.661e-4
1.140, -2.012e-6, 5.660e-4
1.145, -2.024e-6, 5.659e-4
1.150, -1.769e-6, 5.658e-4

Segment 8:
1.145, -1.398e-6, 5.658e-4
1.140, -1.163e-6, 5.657e-4
1.135, -9.766e-7, 5.657e-4
1.130, -8.304e-7, 5.656e-4
1.125, -7.128e-7, 5.656e-4
1.120, -6.219e-7, 5.656e-4
1.115, -5.370e-7, 5.655e-4
1.110, -4.708e-7, 5.655e-4
1.105, -4.134e-7, 5.655e-4
1.100, -3.632e-7, 5.655e-4
1.095, -3.250e-7, 5.655e-4
1.090, -2.911e-7, 5.654e-4
1.085, -2.511e-7, 5.654e-4
1.080, -2.270e-7, 5.654e-4
1.075, -1.997e-7, 5.654e-4
1.070, -1.759e-7, 5.654e-4
1.065, -1.510e-7, 5.654e-4
1.060, -1.390e-7, 5.654e-4
1.055, -1.268e-7, 5.654e-4
1.050, -1.109e-7, 5.654e-4
1.045, -9.613e-8, 5.654e-4
1.040, -8.092e-8, 5.654e-4
1.035, -6.015e-8, 5.654e-4
1.030, -5.394e-8, 5.654e-4
1.025, -3.840e-8, 5.654e-4
1.020, -2.708e-8, 5.654e-4
1.015, -1.276e-8, 5.654e-4
1.010, -8.642e-9, 5.654e-4
1.005, -2.738e-9, 5.654e-4
1.000, 7.193e-11, 5.654e-4
0.995, 9.402e-9, 5.654e-4
0.990, 1.619e-8, 5.654e-4
0.985, 2.781e-8, 5.654e-4
0.980, 3.317e-8, 5.654e-4
0.975, 4.109e-8, 5.654e-4
0.970, 4.177e-8, 5.654e-4
0.965, 4.757e-8, 5.654e-4
0.960, 4.849e-8, 5.654e-4
0.955, 5.632e-8, 5.654e-4
0.950, 6.005e-8, 5.654e-4
0.945, 7.075e-8, 5.654e-4
0.940, 7.449e-8, 5.654e-4
0.935, 8.327e-8, 5.654e-4
0.930, 8.572e-8, 5.654e-4
0.925, 9.203e-8, 5.654e-4
0.920, 9.228e-8, 5.654e-4
0.915, 9.711e-8, 5.654e-4
0.910, 9.852e-8, 5.654e-4
0.905, 1.054e-7, 5.654e-4
0.900, 1.084e-7, 5.654e-4
0.895, 1.188e-7, 5.654e-4
0.890, 1.225e-7, 5.654e-4
0.885, 1.313e-7, 5.654e-4
0.880, 1.334e-7, 5.654e-4
0.875, 1.397e-7, 5.655e-4
0.870, 1.393e-7, 5.655e-4
0.865, 1.450e-7, 5.655e-4
0.860, 1.451e-7, 5.655e-4
0.855, 1.523e-7, 5.655e-4
0.850, 1.551e-7, 5.655e-4
0.845, 1.657e-7, 5.655e-4
0.840, 1.694e-7, 5.655e-4
0.835, 1.791e-7, 5.655e-4
0.830, 1.824e-7, 5.655e-4
0.825, 1.893e-7, 5.655e-4
0.820, 1.889e-7, 5.655e-4
0.815, 1.952e-7, 5.656e-4
0.810, 1.974e-7, 5.656e-4
0.805, 2.070e-7, 5.656e-4
0.800, 2.117e-7, 5.656e-4
0.795, 2.248e-7, 5.656e-4
0.790, 2.291e-7, 5.656e-4
0.785, 2.383e-7, 5.656e-4
0.780, 2.413e-7, 5.656e-4
0.775, 2.496e-7, 5.656e-4
0.770, 2.557e-7, 5.657e-4
0.765, 2.631e-7, 5.657e-4
0.760, 2.709e-7, 5.657e-4
0.755, 2.792e-7, 5.657e-4
0.750, 2.855e-7, 5.657e-4
0.745, 2.921e-7, 5.657e-4
0.740, 2.977e-7, 5.657e-4
0.735, 3.123e-7, 5.658e-4
0.730, 3.215e-7, 5.658e-4
0.725, 3.341e-7, 5.658e-4
0.720, 3.383e-7, 5.658e-4
0.715, 3.501e-7, 5.658e-4
0.710, 3.620e-7, 5.658e-4
0.705, 3.783e-7, 5.659e-4
0.700, 3.845e-7, 5.659e-4
0.695, 3.965e-7, 5.659e-4
0.690, 4.099e-7, 5.659e-4
0.685, 4.290e-7, 5.659e-4
0.680, 4.364e-7, 5.660e-4
0.675, 4.549e-7, 5.660e-4
0.670, 4.723e-7, 5.660e-4
0.665, 4.848e-7, 5.660e-4
0.660, 4.987e-7, 5.661e-4
0.655, 5.237e-7, 5.661e-4
0.650, 5.341e-7, 5.661e-4
0.645, 5.603e-7, 5.661e-4
0.640, 5.781e-7, 5.662e-4
0.635, 6.029e-7, 5.662e-4
0.630, 6.251e-7, 5.662e-4
0.625, 6.477e-7, 5.663e-4
0.620, 6.728e-7, 5.663e-4
0.615, 7.033e-7, 5.663e-4
0.610, 7.267e-7, 5.664e-4
0.605, 7.651e-7, 5.664e-4
0.600, 7.912e-7, 5.664e-4
0.595, 8.297e-7, 5.665e-4
0.590, 8.675e-7, 5.665e-4
0.585, 9.084e-7, 5.666e-4
0.580, 9.472e-7, 5.666e-4
0.575, 9.961e-7, 5.667e-4
0.570, 1.041e-6, 5.667e-4
0.565, 1.095e-6, 5.668e-4
0.560, 1.150e-6, 5.668e-4
0.555, 1.213e-6, 5.669e-4
0.550, 1.273e-6, 5.670e-4
0.545, 1.348e-6, 5.670e-4
0.540, 1.443e-6, 5.671e-4
0.535, 1.535e-6, 5.672e-4
0.530, 1.626e-6, 5.673e-4
0.525, 1.731e-6, 5.673e-4
0.520, 1.842e-6, 5.674e-4
0.515, 1.973e-6, 5.675e-4
0.510, 2.107e-6, 5.676e-4
0.505, 2.268e-6, 5.678e-4
0.500, 2.440e-6, 5.679e-4
0.495, 2.641e-6, 5.680e-4
0.490, 2.855e-6, 5.682e-4
0.485, 3.116e-6, 5.683e-4
0.480, 3.390e-6, 5.685e-4
0.475, 3.706e-6, 5.687e-4
0.470, 4.057e-6, 5.689e-4
0.465, 4.454e-6, 5.691e-4
0.460, 4.895e-6, 5.693e-4
0.455, 5.372e-6, 5.696e-4
0.450, 5.884e-6, 5.699e-4
0.445, 6.457e-6, 5.702e-4
0.440, 7.048e-6, 5.706e-4
0.435, 7.697e-6, 5.710e-4
0.430, 8.363e-6, 5.714e-4
0.425, 9.048e-6, 5.718e-4
0.420, 9.749e-6, 5.723e-4
0.415, 1.047e-5, 5.728e-4
0.410, 1.118e-5, 5.734e-4
0.405, 1.186e-5, 5.740e-4
0.400, 1.251e-5, 5.746e-4
0.395, 1.312e-5, 5.753e-4
0.390, 1.366e-5, 5.760e-4
0.385, 1.417e-5, 5.767e-4
0.380, 1.456e-5, 5.774e-4
0.375, 1.490e-5, 5.781e-4
0.370, 1.518e-5, 5.789e-4
0.365, 1.553e-5, 5.797e-4
0.360, 1.598e-5, 5.805e-4
0.355, 1.639e-5, 5.813e-4
0.350, 1.673e-5, 5.821e-4
0.345, 1.704e-5, 5.830e-4
0.340, 1.733e-5, 5.838e-4
0.335, 1.757e-5, 5.847e-4
0.330, 1.774e-5, 5.856e-4
0.325, 1.779e-5, 5.865e-4
0.320, 1.779e-5, 5.874e-4
0.315, 1.774e-5, 5.883e-4
0.310, 1.763e-5, 5.892e-4
0.305, 1.746e-5, 5.900e-4
0.300, 1.729e-5, 5.909e-4
0.295, 1.708e-5, 5.917e-4
0.290, 1.689e-5, 5.926e-4
0.285, 1.675e-5, 5.934e-4
0.280, 1.659e-5, 5.943e-4
0.275, 1.631e-5, 5.951e-4
0.270, 1.597e-5, 5.959e-4
0.265, 1.569e-5, 5.967e-4
0.260, 1.546e-5, 5.974e-4
0.255, 1.522e-5, 5.982e-4
0.250, 1.499e-5, 5.989e-4
0.245, 1.479e-5, 5.997e-4
0.240, 1.461e-5, 6.004e-4
0.235, 1.443e-5, 6.011e-4
0.230, 1.423e-5, 6.018e-4
0.225, 1.401e-5, 6.025e-4
0.220, 1.374e-5, 6.032e-4
0.215, 1.349e-5, 6.039e-4
0.210, 1.325e-5, 6.046e-4
0.205, 1.301e-5, 6.052e-4
0.200, 1.275e-5, 6.059e-4
0.195, 1.251e-5, 6.065e-4
0.190, 1.224e-5, 6.071e-4
0.185, 1.201e-5, 6.077e-4
0.180, 1.180e-5, 6.083e-4
0.175, 1.163e-5, 6.089e-4
0.170, 1.151e-5, 6.094e-4
0.165, 1.141e-5, 6.100e-4
0.160, 1.126e-5, 6.106e-4
0.155, 1.116e-5, 6.111e-4
0.150, 1.112e-5, 6.117e-4
0.145, 1.112e-5, 6.122e-4
0.140, 1.113e-5, 6.128e-4
0.135, 1.118e-5, 6.134e-4
0.130, 1.115e-5, 6.139e-4
0.125, 1.105e-5, 6.145e-4
0.120, 1.099e-5, 6.150e-4
0.115, 1.109e-5, 6.156e-4
0.110, 1.130e-5, 6.161e-4
0.105, 1.158e-5, 6.167e-4
0.100, 1.185e-5, 6.173e-4
0.095, 1.196e-5, 6.179e-4
0.090, 1.188e-5, 6.185e-4
0.085, 1.176e-5, 6.191e-4
0.080, 1.170e-5, 6.197e-4
0.075, 1.163e-5, 6.203e-4
0.070, 1.147e-5, 6.208e-4
0.065, 1.140e-5, 6.214e-4
0.060, 1.137e-5, 6.220e-4
0.055, 1.127e-5, 6.225e-4
0.050, 1.114e-5, 6.231e-4
0.045, 1.100e-5, 6.236e-4
0.040, 1.086e-5, 6.242e-4
0.035, 1.072e-5, 6.247e-4
0.030, 1.059e-5, 6.252e-4
0.025, 1.048e-5, 6.258e-4
0.020, 1.034e-5, 6.263e-4
0.015, 1.019e-5, 6.268e-4
0.010, 1.002e-5, 6.273e-4
0.005, 9.892e-6, 6.278e-4
0.000, 9.770e-6, 6.283e-4
-0.005, 9.650e-6, 6.288e-4
-0.010, 9.544e-6, 6.292e-4
-0.015, 9.445e-6, 6.297e-4
-0.020, 9.310e-6, 6.302e-4
-0.025, 9.230e-6, 6.306e-4
-0.030, 9.173e-6, 6.311e-4
-0.035, 9.148e-6, 6.316e-4
-0.040, 9.116e-6, 6.320e-4
-0.045, 9.111e-6, 6.325e-4
-0.050, 9.106e-6, 6.329e-4
-0.055, 9.136e-6, 6.334e-4
-0.060, 9.175e-6, 6.338e-4
-0.065, 9.262e-6, 6.343e-4
-0.070, 9.401e-6, 6.348e-4
-0.075, 9.635e-6, 6.353e-4
-0.080, 9.964e-6, 6.358e-4
-0.085, 1.046e-5, 6.363e-4
-0.090, 1.111e-5, 6.368e-4
-0.095, 1.182e-5, 6.374e-4
-0.100, 1.247e-5, 6.380e-4
-0.105, 1.310e-5, 6.387e-4
-0.110, 1.363e-5, 6.394e-4
-0.115, 1.410e-5, 6.401e-4
-0.120, 1.455e-5, 6.408e-4
-0.125, 1.506e-5, 6.416e-4
-0.130, 1.555e-5, 6.423e-4
-0.135, 1.597e-5, 6.431e-4
-0.140, 1.631e-5, 6.440e-4
-0.145, 1.665e-5, 6.448e-4
-0.150, 1.700e-5, 6.456e-4
-0.155, 1.732e-5, 6.465e-4
-0.160, 1.749e-5, 6.474e-4
-0.165, 1.756e-5, 6.483e-4
-0.170, 1.756e-5, 6.491e-4
-0.175, 1.742e-5, 6.500e-4
-0.180, 1.709e-5, 6.509e-4
-0.185, 1.673e-5, 6.517e-4
-0.190, 1.641e-5, 6.525e-4
-0.195, 1.610e-5, 6.533e-4
-0.200, 1.581e-5, 6.541e-4
-0.205, 1.562e-5, 6.549e-4
-0.210, 1.555e-5, 6.557e-4
-0.215, 1.550e-5, 6.565e-4
-0.220, 1.537e-5, 6.572e-4
-0.225, 1.515e-5, 6.580e-4
-0.230, 1.494e-5, 6.587e-4
-0.235, 1.476e-5, 6.595e-4
-0.240, 1.456e-5, 6.602e-4
-0.245, 1.437e-5, 6.609e-4
-0.250, 1.422e-5, 6.616e-4
-0.255, 1.416e-5, 6.623e-4
-0.260, 1.411e-5, 6.630e-4
-0.265, 1.406e-5, 6.637e-4
-0.270, 1.410e-5, 6.644e-4
-0.275, 1.440e-5, 6.652e-4
-0.280, 1.287e-5, 6.658e-4

Segment 9:
-0.275, 1.218e-5, 6.664e-4
-0.270, 1.243e-5, 6.670e-4
-0.265, 1.283e-5, 6.677e-4
-0.260, 1.328e-5, 6.683e-4
-0.255, 1.372e-5, 6.690e-4
-0.250, 1.416e-5, 6.697e-4
-0.245, 1.474e-5, 6.705e-4
-0.240, 1.530e-5, 6.712e-4
-0.235, 1.566e-5, 6.720e-4
-0.230, 1.571e-5, 6.728e-4
-0.225, 1.551e-5, 6.736e-4
-0.220, 1.512e-5, 6.743e-4
-0.215, 1.466e-5, 6.751e-4
-0.210, 1.419e-5, 6.758e-4
-0.205, 1.366e-5, 6.765e-4
-0.200, 1.313e-5, 6.771e-4
-0.195, 1.256e-5, 6.777e-4
-0.190, 1.210e-5, 6.784e-4
-0.185, 1.192e-5, 6.789e-4
-0.180, 1.208e-5, 6.796e-4
-0.175, 1.247e-5, 6.802e-4
-0.170, 1.292e-5, 6.808e-4
-0.165, 1.336e-5, 6.815e-4
-0.160, 1.366e-5, 6.822e-4
-0.155, 1.375e-5, 6.829e-4
-0.150, 1.373e-5, 6.835e-4
-0.145, 1.364e-5, 6.842e-4
-0.140, 1.346e-5, 6.849e-4
-0.135, 1.317e-5, 6.856e-4
-0.130, 1.282e-5, 6.862e-4
-0.125, 1.243e-5, 6.868e-4
-0.120, 1.201e-5, 6.874e-4
-0.115, 1.158e-5, 6.880e-4
-0.110, 1.118e-5, 6.886e-4
-0.105, 1.077e-5, 6.891e-4
-0.100, 1.038e-5, 6.896e-4
-0.095, 1.002e-5, 6.901e-4
-0.090, 9.686e-6, 6.906e-4
-0.085, 9.370e-6, 6.911e-4
-0.080, 9.084e-6, 6.915e-4
-0.075, 8.815e-6, 6.920e-4
-0.070, 8.568e-6, 6.924e-4
-0.065, 8.334e-6, 6.928e-4
-0.060, 8.126e-6, 6.932e-4
-0.055, 7.954e-6, 6.936e-4
-0.050, 7.830e-6, 6.940e-4
-0.045, 7.778e-6, 6.944e-4
-0.040, 7.801e-6, 6.948e-4
-0.035, 7.854e-6, 6.952e-4
-0.030, 7.897e-6, 6.956e-4
-0.025, 7.972e-6, 6.960e-4
-0.020, 8.112e-6, 6.964e-4
-0.015, 8.228e-6, 6.968e-4
-0.010, 8.281e-6, 6.972e-4
-0.005, 8.265e-6, 6.976e-4
-0.000, 8.276e-6, 6.980e-4
0.005, 8.353e-6, 6.984e-4
0.010, 8.464e-6, 6.989e-4
0.015, 8.515e-6, 6.993e-4
0.020, 8.565e-6, 6.997e-4
0.025, 8.645e-6, 7.002e-4
0.030, 8.721e-6, 7.006e-4
0.035, 8.795e-6, 7.010e-4
0.040, 8.888e-6, 7.015e-4
0.045, 8.922e-6, 7.019e-4
0.050, 8.903e-6, 7.024e-4
0.055, 8.908e-6, 7.028e-4
0.060, 8.956e-6, 7.033e-4
0.065, 9.013e-6, 7.037e-4
0.070, 9.091e-6, 7.042e-4
0.075, 9.169e-6, 7.046e-4
0.080, 9.261e-6, 7.051e-4
0.085, 9.351e-6, 7.056e-4
0.090, 9.435e-6, 7.060e-4
0.095, 9.501e-6, 7.065e-4
0.100, 9.614e-6, 7.070e-4
0.105, 9.792e-6, 7.075e-4
0.110, 9.956e-6, 7.080e-4
0.115, 1.005e-5, 7.085e-4
0.120, 1.015e-5, 7.090e-4
0.125, 1.033e-5, 7.095e-4
0.130, 1.045e-5, 7.100e-4
0.135, 1.042e-5, 7.105e-4
0.140, 1.038e-5, 7.111e-4
0.145, 1.041e-5, 7.116e-4
0.150, 1.054e-5, 7.121e-4
0.155, 1.063e-5, 7.126e-4
0.160, 1.078e-5, 7.132e-4
0.165, 1.104e-5, 7.137e-4
0.170, 1.145e-5, 7.143e-4
0.175, 1.192e-5, 7.149e-4
0.180, 1.233e-5, 7.155e-4
0.185, 1.277e-5, 7.162e-4
0.190, 1.336e-5, 7.168e-4
0.195, 1.396e-5, 7.175e-4
0.200, 1.425e-5, 7.182e-4
0.205, 1.421e-5, 7.189e-4
0.210, 1.408e-5, 7.196e-4
0.215, 1.402e-5, 7.203e-4
0.220, 1.389e-5, 7.210e-4
0.225, 1.361e-5, 7.217e-4
0.230, 1.325e-5, 7.224e-4
0.235, 1.293e-5, 7.230e-4
0.240, 1.271e-5, 7.237e-4
0.245, 1.260e-5, 7.243e-4
0.250, 1.247e-5, 7.249e-4
0.255, 1.221e-5, 7.255e-4
0.260, 1.193e-5, 7.261e-4
0.265, 1.179e-5, 7.267e-4
0.270, 1.180e-5, 7.273e-4
0.275, 1.177e-5, 7.279e-4
0.280, 1.165e-5, 7.285e-4
0.285, 1.150e-5, 7.291e-4
0.290, 1.153e-5, 7.296e-4
0.295, 1.172e-5, 7.302e-4
0.300, 1.188e-5, 7.308e-4
0.305, 1.198e-5, 7.314e-4
0.310, 1.219e-5, 7.320e-4
0.315, 1.247e-5, 7.326e-4
0.320, 1.269e-5, 7.333e-4
0.325, 1.277e-5, 7.339e-4
0.330, 1.274e-5, 7.346e-4
0.335, 1.264e-5, 7.352e-4
0.340, 1.256e-5, 7.358e-4
0.345, 1.244e-5, 7.364e-4
0.350, 1.223e-5, 7.370e-4
0.355, 1.199e-5, 7.376e-4
0.360, 1.177e-5, 7.382e-4
0.365, 1.156e-5, 7.388e-4
0.370, 1.141e-5, 7.394e-4
0.375, 1.127e-5, 7.399e-4
0.380, 1.115e-5, 7.405e-4
0.385, 1.099e-5, 7.411e-4
0.390, 1.079e-5, 7.416e-4
0.395, 1.056e-5, 7.421e-4
0.400, 1.031e-5, 7.426e-4
0.405, 1.004e-5, 7.431e-4
0.410, 9.757e-6, 7.436e-4
0.415, 9.436e-6, 7.441e-4
0.420, 9.105e-6, 7.446e-4
0.425, 8.789e-6, 7.450e-4
0.430, 8.513e-6, 7.454e-4
0.435, 8.244e-6, 7.458e-4
0.440, 8.007e-6, 7.462e-4
0.445, 7.818e-6, 7.466e-4
0.450, 7.689e-6, 7.470e-4
0.455, 7.542e-6, 7.474e-4
0.460, 7.364e-6, 7.478e-4
0.465, 7.167e-6, 7.481e-4
0.470, 7.010e-6, 7.485e-4
0.475, 6.850e-6, 7.488e-4
0.480, 6.648e-6, 7.491e-4
0.485, 6.392e-6, 7.495e-4
0.490, 6.132e-6, 7.498e-4
0.495, 5.874e-6, 7.501e-4
0.500, 5.626e-6, 7.503e-4
0.505, 5.359e-6, 7.506e-4
0.510, 5.086e-6, 7.509e-4
0.515, 4.802e-6, 7.511e-4
0.520, 4.496e-6, 7.513e-4
0.525, 4.181e-6, 7.515e-4
0.530, 3.865e-6, 7.517e-4
0.535, 3.531e-6, 7.519e-4
0.540, 3.204e-6, 7.521e-4
0.545, 2.876e-6, 7.522e-4
0.550, 2.560e-6, 7.523e-4
0.555, 2.237e-6, 7.524e-4
0.560, 1.928e-6, 7.525e-4
0.565, 1.626e-6, 7.526e-4
0.570, 1.329e-6, 7.527e-4
0.575, 1.051e-6, 7.527e-4
0.580, 8.027e-7, 7.528e-4
0.585, 5.761e-7, 7.528e-4
0.590, 3.650e-7, 7.528e-4
0.595, 1.700e-7, 7.528e-4
0.600, -7.612e-9, 7.528e-4
0.605, -1.779e-7, 7.528e-4
0.610, -3.193e-7, 7.528e-4
0.615, -4.501e-7, 7.528e-4
0.620, -5.701e-7, 7.528e-4
0.625, -6.736e-7, 7.527e-4
0.630, -7.605e-7, 7.527e-4
0.635, -8.431e-7, 7.526e-4
0.640, -9.162e-7, 7.526e-4
0.645, -9.759e-7, 7.526e-4
0.650, -1.030e-6, 7.525e-4
0.655, -1.078e-6, 7.524e-4
0.660, -1.117e-6, 7.524e-4
0.665, -1.151e-6, 7.523e-4
0.670, -1.181e-6, 7.523e-4
0.675, -1.206e-6, 7.522e-4
0.680, -1.230e-6, 7.522e-4
0.685, -1.249e-6, 7.521e-4
0.690, -1.264e-6, 7.520e-4
0.695, -1.284e-6, 7.520e-4
0.700, -1.296e-6, 7.519e-4
0.705, -1.305e-6, 7.518e-4
0.710, -1.319e-6, 7.518e-4
0.715, -1.334e-6, 7.517e-4
0.720, -1.340e-6, 7.516e-4
0.725, -1.346e-6, 7.516e-4
0.730, -1.348e-6, 7.515e-4
0.735, -1.357e-6, 7.514e-4
0.740, -1.366e-6, 7.514e-4
0.745, -1.377e-6, 7.513e-4
0.750, -1.383e-6, 7.512e-4
0.755, -1.390e-6, 7.512e-4
0.760, -1.392e-6, 7.511e-4
0.765, -1.397e-6, 7.510e-4
0.770, -1.399e-6, 7.509e-4
0.775, -1.406e-6, 7.509e-4
0.780, -1.413e-6, 7.508e-4
0.785, -1.423e-6, 7.507e-4
0.790, -1.431e-6, 7.507e-4
0.795, -1.440e-6, 7.506e-4
0.800, -1.442e-6, 7.505e-4
0.805, -1.449e-6, 7.504e-4
0.810, -1.455e-6, 7.504e-4
0.815, -1.467e-6, 7.503e-4
0.820, -1.473e-6, 7.502e-4
0.825, -1.487e-6, 7.502e-4
0.830, -1.490e-6, 7.501e-4
0.835, -1.497e-6, 7.500e-4
0.840, -1.505e-6, 7.499e-4
0.845, -1.520e-6, 7.499e-4
0.850, -1.531e-6, 7.498e-4
0.855, -1.539e-6, 7.497e-4
0.860, -1.543e-6, 7.496e-4
0.865, -1.555e-6, 7.495e-4
0.870, -1.568e-6, 7.495e-4
0.875, -1.583e-6, 7.494e-4
0.880, -1.588e-6, 7.493e-4
0.885, -1.598e-6, 7.492e-4
0.890, -1.609e-6, 7.491e-4
0.895, -1.626e-6, 7.491e-4
0.900, -1.633e-6, 7.490e-4
0.905, -1.642e-6, 7.489e-4
0.910, -1.649e-6, 7.488e-4
0.915, -1.662e-6, 7.487e-4
0.920, -1.677e-6, 7.487e-4
0.925, -1.688e-6, 7.486e-4
0.930, -1.699e-6, 7.485e-4
0.935, -1.712e-6, 7.484e-4
0.940, -1.725e-6, 7.483e-4
0.945, -1.735e-6, 7.482e-4
0.950, -1.739e-6, 7.481e-4
0.955, -1.747e-6, 7.481e-4
0.960, -1.755e-6, 7.480e-4
0.965, -1.770e-6, 7.479e-4
0.970, -1.776e-6, 7.478e-4
0.975, -1.784e-6, 7.477e-4
0.980, -1.786e-6, 7.476e-4
0.985, -1.793e-6, 7.475e-4
0.990, -1.798e-6, 7.474e-4
0.995, -1.808e-6, 7.473e-4
1.000, -1.817e-6, 7.472e-4
1.005, -1.824e-6, 7.472e-4
1.010, -1.827e-6, 7.471e-4
1.015, -1.832e-6, 7.470e-4
1.020, -1.834e-6, 7.469e-4
1.025, -1.839e-6, 7.468e-4
1.030, -1.841e-6, 7.467e-4
1.035, -1.848e-6, 7.466e-4
1.040, -1.853e-6, 7.465e-4
1.045, -1.861e-6, 7.464e-4
1.050, -1.868e-6, 7.463e-4
1.055, -1.875e-6, 7.462e-4
1.060, -1.877e-6, 7.461e-4
1.065, -1.883e-6, 7.460e-4
1.070, -1.882e-6, 7.459e-4
1.075, -1.887e-6, 7.459e-4
1.080, -1.888e-6, 7.458e-4
1.085, -1.895e-6, 7.457e-4
1.090, -1.899e-6, 7.456e-4
1.095, -1.907e-6, 7.455e-4
1.100, -1.916e-6, 7.454e-4
1.105, -1.923e-6, 7.453e-4
1.110, -1.927e-6, 7.452e-4
1.115, -1.933e-6, 7.451e-4
1.120, -1.936e-6, 7.450e-4
1.125, -1.950e-6, 7.449e-4
1.130, -1.962e-6, 7.448e-4
1.135, -1.975e-6, 7.447e-4
1.140, -1.980e-6, 7.446e-4
1.145, -1.993e-6, 7.445e-4
1.150, -1.733e-6, 7.444e-4

Segment 10:
1.145, -1.369e-6, 7.443e-4
1.140, -1.133e-6, 7.443e-4
1.135, -9.530e-7, 7.442e-4
1.130, -8.095e-7, 7.442e-4
1.125, -6.954e-7, 7.442e-4
1.120, -6.008e-7, 7.441e-4
1.115, -5.262e-7, 7.441e-4
1.110, -4.572e-7, 7.441e-4
1.105, -4.029e-7, 7.441e-4
1.100, -3.523e-7, 7.440e-4
1.095, -3.162e-7, 7.440e-4
1.090, -2.736e-7, 7.440e-4
1.085, -2.427e-7, 7.440e-4
1.080, -2.167e-7, 7.440e-4
1.075, -1.884e-7, 7.440e-4
1.070, -1.687e-7, 7.440e-4
1.065, -1.555e-7, 7.440e-4
1.060, -1.401e-7, 7.440e-4
1.055, -1.119e-7, 7.440e-4
1.050, -9.473e-8, 7.440e-4
1.045, -8.301e-8, 7.439e-4
1.040, -7.246e-8, 7.439e-4
1.035, -6.118e-8, 7.439e-4
1.030, -4.113e-8, 7.439e-4
1.025, -3.249e-8, 7.439e-4
1.020, -2.318e-8, 7.439e-4
1.015, -1.811e-8, 7.439e-4
1.010, -6.590e-9, 7.439e-4
1.005, 3.796e-9, 7.439e-4
1.000, 1.320e-8, 7.439e-4
0.995, 1.601e-8, 7.439e-4
0.990, 2.301e-8, 7.439e-4
0.985, 2.360e-8, 7.439e-4
0.980, 3.211e-8, 7.439e-4
0.975, 3.610e-8, 7.439e-4
0.970, 4.587e-8, 7.439e-4
0.965, 5.264e-8, 7.439e-4
0.960, 5.973e-8, 7.440e-4
0.955, 6.308e-8, 7.440e-4
0.950, 6.960e-8, 7.440e-4
0.945, 6.899e-8, 7.440e-4
0.940, 7.533e-8, 7.440e-4
0.935, 7.736e-8, 7.440e-4
0.930, 8.434e-8, 7.440e-4
0.925, 9.000e-8, 7.440e-4
0.920, 9.729e-8, 7.440e-4
0.915, 1.030e-7, 7.440e-4
0.910, 1.097e-7, 7.440e-4
0.905, 1.123e-7, 7.440e-4
0.900, 1.178e-7, 7.440e-4
0.895, 1.182e-7, 7.440e-4
0.890, 1.235e-7, 7.440e-4
0.885, 1.245e-7, 7.440e-4
0.880, 1.304e-7, 7.440e-4
0.875, 1.351e-7, 7.440e-4
0.870, 1.422e-7, 7.440e-4
0.865, 1.486e-7, 7.441e-4
0.860, 1.551e-7, 7.441e-4
0.855, 1.592e-7, 7.441e-4
0.850, 1.650e-7, 7.441e-4
0.845, 1.663e-7, 7.441e-4
0.840, 1.718e-7, 7.441e-4
0.835, 1.734e-7, 7.441e-4
0.830, 1.812e-7, 7.441e-4
0.825, 1.868e-7, 7.441e-4
0.820, 1.931e-7, 7.441e-4
0.815, 2.015e-7, 7.441e-4
0.810, 2.092e-7, 7.441e-4
0.805, 2.116e-7, 7.442e-4
0.800, 2.175e-7, 7.442e-4
0.795, 2.195e-7, 7.442e-4
0.790, 2.263e-7, 7.442e-4
0.785, 2.313e-7, 7.442e-4
0.780, 2.394e-7, 7.442e-4
0.775, 2.492e-7, 7.442e-4
0.770, 2.565e-7, 7.442e-4
0.765, 2.682e-7, 7.443e-4
0.760, 2.766e-7, 7.443e-4
0.755, 2.852e-7, 7.443e-4
0.750, 2.934e-7, 7.443e-4
0.745, 3.016e-7, 7.443e-4
0.740, 3.096e-7, 7.443e-4
0.735, 3.126e-7, 7.443e-4
0.730, 3.216e-7, 7.444e-4
0.725, 3.312e-7, 7.444e-4
0.720, 3.467e-7, 7.444e-4
0.715, 3.566e-7, 7.444e-4
0.710, 3.655e-7, 7.444e-4
0.705, 3.742e-7, 7.444e-4
0.700, 3.917e-7, 7.445e-4
0.695, 4.032e-7, 7.445e-4
0.690, 4.147e-7, 7.445e-4
0.685, 4.262e-7, 7.445e-4
0.680, 4.473e-7, 7.446e-4
0.675, 4.576e-7, 7.446e-4
0.670, 4.717e-7, 7.446e-4
0.665, 4.911e-7, 7.446e-4
0.660, 5.080e-7, 7.446e-4
0.655, 5.202e-7, 7.447e-4
0.650, 5.462e-7, 7.447e-4
0.645, 5.604e-7, 7.447e-4
0.640, 5.867e-7, 7.448e-4
0.635, 6.051e-7, 7.448e-4
0.630, 6.264e-7, 7.448e-4
0.625, 6.542e-7, 7.449e-4
0.620, 6.838e-7, 7.449e-4
0.615, 7.059e-7, 7.449e-4
0.610, 7.405e-7, 7.450e-4
0.605, 7.661e-7, 7.450e-4
0.600, 8.020e-7, 7.450e-4
0.595, 8.392e-7, 7.451e-4
0.590, 8.779e-7, 7.451e-4
0.585, 9.122e-7, 7.452e-4
0.580, 9.566e-7, 7.452e-4
0.575, 9.995e-7, 7.453e-4
0.570, 1.056e-6, 7.453e-4
0.565, 1.103e-6, 7.454e-4
0.560, 1.164e-6, 7.454e-4
0.555, 1.224e-6, 7.455e-4
0.550, 1.291e-6, 7.456e-4
0.545, 1.366e-6, 7.456e-4
0.540, 1.467e-6, 7.457e-4
0.535, 1.551e-6, 7.458e-4
0.530, 1.650e-6, 7.459e-4
0.525, 1.750e-6, 7.460e-4
0.520, 1.870e-6, 7.460e-4
0.515, 1.999e-6, 7.461e-4
0.510, 2.147e-6, 7.463e-4
0.505, 2.305e-6, 7.464e-4
0.500, 2.487e-6, 7.465e-4
0.495, 2.697e-6, 7.466e-4
0.490, 2.922e-6, 7.468e-4
0.485, 3.188e-6, 7.469e-4
0.480, 3.481e-6, 7.471e-4
0.475, 3.813e-6, 7.473e-4
0.470, 4.187e-6, 7.475e-4
0.465, 4.612e-6, 7.477e-4
0.460, 5.077e-6, 7.480e-4
0.455, 5.582e-6, 7.483e-4
0.450, 6.143e-6, 7.486e-4
0.445, 6.739e-6, 7.489e-4
0.440, 7.377e-6, 7.493e-4
0.435, 8.064e-6, 7.497e-4
0.430, 8.764e-6, 7.501e-4
0.425, 9.478e-6, 7.506e-4
0.420, 1.020e-5, 7.511e-4
0.415, 1.094e-5, 7.517e-4
0.410, 1.165e-5, 7.522e-4
0.405, 1.235e-5, 7.529e-4
0.400, 1.304e-5, 7.535e-4
0.395, 1.367e-5, 7.542e-4
0.390, 1.428e-5, 7.549e-4
0.385, 1.480e-5, 7.556e-4
0.380, 1.520e-5, 7.564e-4
0.375, 1.550e-5, 7.572e-4
0.370, 1.573e-5, 7.580e-4
0.365, 1.590e-5, 7.588e-4
0.360, 1.599e-5, 7.596e-4
0.355, 1.605e-5, 7.604e-4
0.350, 1.604e-5, 7.612e-4
0.345, 1.593e-5, 7.620e-4
0.340, 1.575e-5, 7.627e-4
0.335, 1.556e-5, 7.635e-4
0.330, 1.541e-5, 7.643e-4
0.325, 1.540e-5, 7.651e-4
0.320, 1.557e-5, 7.658e-4
0.315, 1.583e-5, 7.666e-4
0.310, 1.611e-5, 7.674e-4
0.305, 1.647e-5, 7.683e-4
0.300, 1.694e-5, 7.691e-4
0.295, 1.748e-5, 7.700e-4
0.290, 1.791e-5, 7.709e-4
0.285, 1.810e-5, 7.718e-4
0.280, 1.802e-5, 7.727e-4
0.275, 1.791e-5, 7.736e-4
0.270, 1.774e-5, 7.745e-4
0.265, 1.733e-5, 7.753e-4
0.260, 1.665e-5, 7.762e-4
0.255, 1.596e-5, 7.770e-4
0.250, 1.541e-5, 7.777e-4
0.245, 1.503e-5, 7.785e-4
0.240, 1.477e-5, 7.792e-4
0.235, 1.463e-5, 7.800e-4
0.230, 1.466e-5, 7.807e-4
0.225, 1.478e-5, 7.814e-4
0.220, 1.482e-5, 7.822e-4
0.215, 1.474e-5, 7.829e-4
0.210, 1.463e-5, 7.836e-4
0.205, 1.456e-5, 7.844e-4
0.200, 1.458e-5, 7.851e-4
0.195, 1.459e-5, 7.858e-4
0.190, 1.471e-5, 7.866e-4
0.185, 1.504e-5, 7.873e-4
0.180, 1.566e-5, 7.881e-4
0.175, 1.645e-5, 7.889e-4
0.170, 1.728e-5, 7.898e-4
0.165, 1.794e-5, 7.907e-4
0.160, 1.843e-5, 7.916e-4
0.155, 1.882e-5, 7.925e-4
0.150, 1.903e-5, 7.935e-4
0.145, 1.890e-5, 7.944e-4
0.140, 1.851e-5, 7.954e-4
0.135, 1.800e-5, 7.963e-4
0.130, 1.756e-5, 7.971e-4
0.125, 1.734e-5, 7.980e-4
0.120, 1.739e-5, 7.989e-4
0.115, 1.757e-5, 7.998e-4
0.110, 1.780e-5, 8.006e-4
0.105, 1.803e-5, 8.015e-4
0.100, 1.809e-5, 8.025e-4
0.095, 1.789e-5, 8.033e-4
0.090, 1.755e-5, 8.042e-4
0.085, 1.717e-5, 8.051e-4
0.080, 1.678e-5, 8.059e-4
0.075, 1.638e-5, 8.067e-4
0.070, 1.601e-5, 8.075e-4
0.065, 1.575e-5, 8.083e-4
0.060, 1.555e-5, 8.091e-4
0.055, 1.540e-5, 8.099e-4
0.050, 1.532e-5, 8.106e-4
0.045, 1.534e-5, 8.114e-4
0.040, 1.548e-5, 8.122e-4
0.035, 1.566e-5, 8.130e-4
0.030, 1.572e-5, 8.138e-4
0.025, 1.565e-5, 8.145e-4
0.020, 1.545e-5, 8.153e-4
0.015, 1.516e-5, 8.161e-4
0.010, 1.482e-5, 8.168e-4
0.005, 1.445e-5, 8.175e-4
0.000, 1.406e-5, 8.182e-4
-0.005, 1.373e-5, 8.189e-4
-0.010, 1.353e-5, 8.196e-4
-0.015, 1.353e-5, 8.203e-4
-0.020, 1.388e-5, 8.210e-4
-0.025, 1.454e-5, 8.217e-4
-0.030, 1.526e-5, 8.225e-4
-0.035, 1.598e-5, 8.233e-4
-0.040, 1.672e-5, 8.241e-4
-0.045, 1.751e-5, 8.250e-4
-0.050, 1.808e-5, 8.259e-4
-0.055, 1.846e-5, 8.268e-4
-0.060, 1.859e-5, 8.277e-4
-0.065, 1.863e-5, 8.287e-4
-0.070, 1.867e-5, 8.296e-4
-0.075, 1.859e-5, 8.305e-4
-0.080, 1.838e-5, 8.314e-4
-0.085, 1.813e-5, 8.323e-4
-0.090, 1.783e-5, 8.332e-4
-0.095, 1.760e-5, 8.341e-4
-0.100, 1.758e-5, 8.350e-4
-0.105, 1.751e-5, 8.359e-4
-0.110, 1.728e-5, 8.367e-4
-0.115, 1.700e-5, 8.376e-4
-0.120, 1.681e-5, 8.384e-4
-0.125, 1.687e-5, 8.393e-4
-0.130, 1.729e-5, 8.401e-4
-0.135, 1.771e-5, 8.410e-4
-0.140, 1.796e-5, 8.419e-4
-0.145, 1.826e-5, 8.428e-4
-0.150, 1.862e-5, 8.438e-4
-0.155, 1.890e-5, 8.447e-4
-0.160, 1.899e-5, 8.457e-4
-0.165, 1.897e-5, 8.466e-4
-0.170, 1.872e-5, 8.475e-4
-0.175, 1.841e-5, 8.485e-4
-0.180, 1.815e-5, 8.494e-4
-0.185, 1.788e-5, 8.503e-4
-0.190, 1.750e-5, 8.511e-4
-0.195, 1.707e-5, 8.520e-4
-0.200, 1.664e-5, 8.528e-4
-0.205, 1.625e-5, 8.536e-4
-0.210, 1.590e-5, 8.544e-4
-0.215, 1.549e-5, 8.552e-4
-0.220, 1.512e-5, 8.560e-4
-0.225, 1.482e-5, 8.567e-4
-0.230, 1.461e-5, 8.574e-4
-0.235, 1.451e-5, 8.582e-4
-0.240, 1.447e-5, 8.589e-4
-0.245, 1.447e-5, 8.596e-4
-0.250, 1.456e-5, 8.603e-4
-0.255, 1.466e-5, 8.611e-4
-0.260, 1.482e-5, 8.618e-4
-0.265, 1.495e-5, 8.626e-4
-0.270, 1.501e-5, 8.633e-4
-0.275, 1.503e-5, 8.641e-4
-0.280, 1.326e-5, 8.647e-4
