Nov. 18, 2020   14:19:06
Cyclic Voltammetry
File: c:\documents and settings\administrator\×ÀÃæ\wyz\o2c.txt
Data Source:  Experiment
Instrument Model:  CHI600B
Header: 
Note: 

Init E (V) = 0.65
High E (V) = 1.15
Low E (V) = -0.28
Init P/N = P
Scan Rate (V/s) = 0.1
Segment = 10
Sample Interval (V) = 0.005
Quiet Time (sec) = 2
Sensitivity (A/V) = 1e-5

Segment 1:
Ep = 1.145V
ip = -5.845e-8A
Ah = -1.887e-8C

Segment 2:
Ep = 0.350V
ip = 1.169e-5A
Ah = 9.780e-6C

Ep = -0.235V
ip = 1.104e-6A
Ah = 5.285e-7C

Segment 3:
Ep = 1.145V
ip = -6.601e-8A
Ah = -2.231e-8C

Segment 4:
Ep = 0.365V
ip = 9.013e-6A
Ah = 7.515e-6C

Ep = -0.235V
ip = 1.131e-6A
Ah = 5.443e-7C

Segment 5:
Ep = 1.145V
ip = -7.595e-8A
Ah = -2.435e-8C

Segment 6:
Ep = 0.375V
ip = 8.460e-6A
Ah = 6.687e-6C

Ep = -0.235V
ip = 1.234e-6A
Ah = 5.986e-7C

Segment 7:
Ep = 1.145V
ip = -7.232e-8A
Ah = -2.647e-8C

Segment 8:
Ep = 0.380V
ip = 8.380e-6A
Ah = 6.490e-6C

Ep = -0.235V
ip = 1.097e-6A
Ah = 5.300e-7C

Segment 9:

Segment 10:
Ep = 0.380V
ip = 8.601e-6A
Ah = 6.810e-6C

Ep = -0.235V
ip = 1.108e-6A
Ah = 5.410e-7C

Potential/V, Current/A, Charge/C

Segment 1:
0.655, -2.975e-7, -1.488e-8
0.660, -3.020e-7, -2.997e-8
0.665, -3.120e-7, -4.557e-8
0.670, -3.249e-7, -6.182e-8
0.675, -3.409e-7, -7.886e-8
0.680, -3.461e-7, -9.617e-8
0.685, -3.581e-7, -1.141e-7
0.690, -3.783e-7, -1.330e-7
0.695, -3.964e-7, -1.528e-7
0.700, -4.126e-7, -1.734e-7
0.705, -4.403e-7, -1.954e-7
0.710, -4.530e-7, -2.181e-7
0.715, -4.869e-7, -2.424e-7
0.720, -5.094e-7, -2.679e-7
0.725, -5.329e-7, -2.946e-7
0.730, -5.569e-7, -3.224e-7
0.735, -5.920e-7, -3.520e-7
0.740, -6.206e-7, -3.830e-7
0.745, -6.486e-7, -4.155e-7
0.750, -6.813e-7, -4.495e-7
0.755, -7.115e-7, -4.851e-7
0.760, -7.387e-7, -5.220e-7
0.765, -7.716e-7, -5.606e-7
0.770, -7.984e-7, -6.005e-7
0.775, -8.334e-7, -6.422e-7
0.780, -8.593e-7, -6.852e-7
0.785, -8.960e-7, -7.300e-7
0.790, -9.260e-7, -7.763e-7
0.795, -9.521e-7, -8.239e-7
0.800, -9.819e-7, -8.730e-7
0.805, -1.013e-6, -9.236e-7
0.810, -1.036e-6, -9.754e-7
0.815, -1.071e-6, -1.029e-6
0.820, -1.094e-6, -1.084e-6
0.825, -1.126e-6, -1.140e-6
0.830, -1.145e-6, -1.197e-6
0.835, -1.178e-6, -1.256e-6
0.840, -1.201e-6, -1.316e-6
0.845, -1.230e-6, -1.378e-6
0.850, -1.253e-6, -1.440e-6
0.855, -1.280e-6, -1.504e-6
0.860, -1.306e-6, -1.570e-6
0.865, -1.328e-6, -1.636e-6
0.870, -1.350e-6, -1.703e-6
0.875, -1.375e-6, -1.772e-6
0.880, -1.395e-6, -1.842e-6
0.885, -1.420e-6, -1.913e-6
0.890, -1.437e-6, -1.985e-6
0.895, -1.466e-6, -2.058e-6
0.900, -1.482e-6, -2.132e-6
0.905, -1.508e-6, -2.208e-6
0.910, -1.520e-6, -2.284e-6
0.915, -1.539e-6, -2.361e-6
0.920, -1.561e-6, -2.439e-6
0.925, -1.576e-6, -2.517e-6
0.930, -1.593e-6, -2.597e-6
0.935, -1.611e-6, -2.678e-6
0.940, -1.620e-6, -2.759e-6
0.945, -1.637e-6, -2.840e-6
0.950, -1.654e-6, -2.923e-6
0.955, -1.667e-6, -3.007e-6
0.960, -1.679e-6, -3.091e-6
0.965, -1.696e-6, -3.175e-6
0.970, -1.710e-6, -3.261e-6
0.975, -1.724e-6, -3.347e-6
0.980, -1.737e-6, -3.434e-6
0.985, -1.750e-6, -3.521e-6
0.990, -1.759e-6, -3.609e-6
0.995, -1.768e-6, -3.698e-6
1.000, -1.775e-6, -3.786e-6
1.005, -1.788e-6, -3.876e-6
1.010, -1.797e-6, -3.966e-6
1.015, -1.805e-6, -4.056e-6
1.020, -1.809e-6, -4.146e-6
1.025, -1.815e-6, -4.237e-6
1.030, -1.818e-6, -4.328e-6
1.035, -1.828e-6, -4.419e-6
1.040, -1.833e-6, -4.511e-6
1.045, -1.843e-6, -4.603e-6
1.050, -1.849e-6, -4.696e-6
1.055, -1.858e-6, -4.789e-6
1.060, -1.861e-6, -4.882e-6
1.065, -1.868e-6, -4.975e-6
1.070, -1.872e-6, -5.069e-6
1.075, -1.879e-6, -5.163e-6
1.080, -1.887e-6, -5.257e-6
1.085, -1.895e-6, -5.352e-6
1.090, -1.901e-6, -5.447e-6
1.095, -1.907e-6, -5.542e-6
1.100, -1.912e-6, -5.638e-6
1.105, -1.919e-6, -5.734e-6
1.110, -1.927e-6, -5.830e-6
1.115, -1.938e-6, -5.927e-6
1.120, -1.949e-6, -6.024e-6
1.125, -1.961e-6, -6.122e-6
1.130, -1.970e-6, -6.221e-6
1.135, -1.988e-6, -6.320e-6
1.140, -2.001e-6, -6.420e-6
1.145, -2.013e-6, -6.521e-6
1.150, -1.759e-6, -6.609e-6

Segment 2:
1.145, -1.391e-6, -6.678e-6
1.140, -1.146e-6, -6.736e-6
1.135, -9.617e-7, -6.784e-6
1.130, -8.165e-7, -6.825e-6
1.125, -6.996e-7, -6.860e-6
1.120, -6.010e-7, -6.890e-6
1.115, -5.215e-7, -6.916e-6
1.110, -4.535e-7, -6.938e-6
1.105, -3.972e-7, -6.958e-6
1.100, -3.459e-7, -6.976e-6
1.095, -3.099e-7, -6.991e-6
1.090, -2.682e-7, -7.004e-6
1.085, -2.385e-7, -7.016e-6
1.080, -2.075e-7, -7.027e-6
1.075, -1.846e-7, -7.036e-6
1.070, -1.588e-7, -7.044e-6
1.065, -1.452e-7, -7.051e-6
1.060, -1.268e-7, -7.058e-6
1.055, -1.065e-7, -7.063e-6
1.050, -9.258e-8, -7.068e-6
1.045, -7.952e-8, -7.071e-6
1.040, -6.217e-8, -7.075e-6
1.035, -4.964e-8, -7.077e-6
1.030, -3.482e-8, -7.079e-6
1.025, -2.507e-8, -7.080e-6
1.020, -1.314e-8, -7.081e-6
1.015, -7.612e-9, -7.081e-6
1.010, 1.947e-9, -7.081e-6
1.005, 6.957e-9, -7.081e-6
1.000, 1.578e-8, -7.080e-6
0.995, 2.103e-8, -7.079e-6
0.990, 3.039e-8, -7.077e-6
0.985, 3.417e-8, -7.076e-6
0.980, 4.288e-8, -7.073e-6
0.975, 4.633e-8, -7.071e-6
0.970, 5.382e-8, -7.068e-6
0.965, 5.721e-8, -7.066e-6
0.960, 6.385e-8, -7.062e-6
0.955, 6.811e-8, -7.059e-6
0.950, 7.429e-8, -7.055e-6
0.945, 7.807e-8, -7.051e-6
0.940, 8.517e-8, -7.047e-6
0.935, 8.662e-8, -7.043e-6
0.930, 9.446e-8, -7.038e-6
0.925, 9.792e-8, -7.033e-6
0.920, 1.039e-7, -7.028e-6
0.915, 1.068e-7, -7.023e-6
0.910, 1.127e-7, -7.017e-6
0.905, 1.158e-7, -7.011e-6
0.900, 1.224e-7, -7.005e-6
0.895, 1.255e-7, -6.999e-6
0.890, 1.321e-7, -6.992e-6
0.885, 1.340e-7, -6.986e-6
0.880, 1.408e-7, -6.978e-6
0.875, 1.434e-7, -6.971e-6
0.870, 1.499e-7, -6.964e-6
0.865, 1.528e-7, -6.956e-6
0.860, 1.590e-7, -6.948e-6
0.855, 1.635e-7, -6.940e-6
0.850, 1.683e-7, -6.932e-6
0.845, 1.733e-7, -6.923e-6
0.840, 1.795e-7, -6.914e-6
0.835, 1.826e-7, -6.905e-6
0.830, 1.904e-7, -6.895e-6
0.825, 1.944e-7, -6.886e-6
0.820, 1.998e-7, -6.876e-6
0.815, 2.050e-7, -6.865e-6
0.810, 2.112e-7, -6.855e-6
0.805, 2.168e-7, -6.844e-6
0.800, 2.237e-7, -6.833e-6
0.795, 2.286e-7, -6.821e-6
0.790, 2.362e-7, -6.810e-6
0.785, 2.423e-7, -6.797e-6
0.780, 2.499e-7, -6.785e-6
0.775, 2.590e-7, -6.772e-6
0.770, 2.661e-7, -6.759e-6
0.765, 2.764e-7, -6.745e-6
0.760, 2.822e-7, -6.731e-6
0.755, 2.898e-7, -6.716e-6
0.750, 2.972e-7, -6.701e-6
0.745, 3.037e-7, -6.686e-6
0.740, 3.125e-7, -6.671e-6
0.735, 3.195e-7, -6.655e-6
0.730, 3.320e-7, -6.638e-6
0.725, 3.408e-7, -6.621e-6
0.720, 3.530e-7, -6.603e-6
0.715, 3.623e-7, -6.585e-6
0.710, 3.746e-7, -6.566e-6
0.705, 3.853e-7, -6.547e-6
0.700, 3.983e-7, -6.527e-6
0.695, 4.090e-7, -6.507e-6
0.690, 4.235e-7, -6.486e-6
0.685, 4.377e-7, -6.464e-6
0.680, 4.529e-7, -6.441e-6
0.675, 4.644e-7, -6.418e-6
0.670, 4.830e-7, -6.394e-6
0.665, 4.961e-7, -6.369e-6
0.660, 5.134e-7, -6.343e-6
0.655, 5.300e-7, -6.317e-6
0.650, 5.503e-7, -6.289e-6
0.645, 5.683e-7, -6.261e-6
0.640, 5.928e-7, -6.231e-6
0.635, 6.098e-7, -6.201e-6
0.630, 6.325e-7, -6.169e-6
0.625, 6.605e-7, -6.136e-6
0.620, 6.846e-7, -6.102e-6
0.615, 7.081e-7, -6.066e-6
0.610, 7.400e-7, -6.029e-6
0.605, 7.680e-7, -5.991e-6
0.600, 7.999e-7, -5.951e-6
0.595, 8.353e-7, -5.909e-6
0.590, 8.707e-7, -5.866e-6
0.585, 9.021e-7, -5.821e-6
0.580, 9.456e-7, -5.773e-6
0.575, 9.885e-7, -5.724e-6
0.570, 1.036e-6, -5.672e-6
0.565, 1.082e-6, -5.618e-6
0.560, 1.134e-6, -5.561e-6
0.555, 1.187e-6, -5.502e-6
0.550, 1.249e-6, -5.440e-6
0.545, 1.313e-6, -5.374e-6
0.540, 1.391e-6, -5.304e-6
0.535, 1.479e-6, -5.230e-6
0.530, 1.564e-6, -5.152e-6
0.525, 1.652e-6, -5.070e-6
0.520, 1.754e-6, -4.982e-6
0.515, 1.861e-6, -4.889e-6
0.510, 1.982e-6, -4.790e-6
0.505, 2.117e-6, -4.684e-6
0.500, 2.263e-6, -4.571e-6
0.495, 2.430e-6, -4.449e-6
0.490, 2.618e-6, -4.318e-6
0.485, 2.826e-6, -4.177e-6
0.480, 3.061e-6, -4.024e-6
0.475, 3.326e-6, -3.858e-6
0.470, 3.618e-6, -3.677e-6
0.465, 3.945e-6, -3.480e-6
0.460, 4.304e-6, -3.264e-6
0.455, 4.723e-6, -3.028e-6
0.450, 5.162e-6, -2.770e-6
0.445, 5.633e-6, -2.488e-6
0.440, 6.161e-6, -2.180e-6
0.435, 6.715e-6, -1.845e-6
0.430, 7.299e-6, -1.480e-6
0.425, 7.916e-6, -1.084e-6
0.420, 8.545e-6, -6.566e-7
0.415, 9.177e-6, -1.978e-7
0.410, 9.800e-6, 2.922e-7
0.405, 1.042e-5, 8.130e-7
0.400, 1.104e-5, 1.365e-6
0.395, 1.161e-5, 1.945e-6
0.390, 1.214e-5, 2.552e-6
0.385, 1.262e-5, 3.183e-6
0.380, 1.304e-5, 3.836e-6
0.375, 1.340e-5, 4.505e-6
0.370, 1.369e-5, 5.190e-6
0.365, 1.391e-5, 5.885e-6
0.360, 1.408e-5, 6.589e-6
0.355, 1.417e-5, 7.297e-6
0.350, 1.420e-5, 8.008e-6
0.345, 1.418e-5, 8.717e-6
0.340, 1.412e-5, 9.422e-6
0.335, 1.400e-5, 1.012e-5
0.330, 1.386e-5, 1.082e-5
0.325, 1.369e-5, 1.150e-5
0.320, 1.350e-5, 1.217e-5
0.315, 1.330e-5, 1.284e-5
0.310, 1.309e-5, 1.349e-5
0.305, 1.286e-5, 1.414e-5
0.300, 1.265e-5, 1.477e-5
0.295, 1.242e-5, 1.539e-5
0.290, 1.219e-5, 1.600e-5
0.285, 1.197e-5, 1.660e-5
0.280, 1.175e-5, 1.719e-5
0.275, 1.154e-5, 1.776e-5
0.270, 1.134e-5, 1.833e-5
0.265, 1.114e-5, 1.889e-5
0.260, 1.095e-5, 1.943e-5
0.255, 1.075e-5, 1.997e-5
0.250, 1.057e-5, 2.050e-5
0.245, 1.039e-5, 2.102e-5
0.240, 1.023e-5, 2.153e-5
0.235, 1.007e-5, 2.203e-5
0.230, 9.917e-6, 2.253e-5
0.225, 9.766e-6, 2.302e-5
0.220, 9.630e-6, 2.350e-5
0.215, 9.496e-6, 2.397e-5
0.210, 9.368e-6, 2.444e-5
0.205, 9.237e-6, 2.491e-5
0.200, 9.121e-6, 2.536e-5
0.195, 9.004e-6, 2.581e-5
0.190, 8.894e-6, 2.626e-5
0.185, 8.783e-6, 2.670e-5
0.180, 8.694e-6, 2.713e-5
0.175, 8.585e-6, 2.756e-5
0.170, 8.501e-6, 2.798e-5
0.165, 8.408e-6, 2.840e-5
0.160, 8.321e-6, 2.882e-5
0.155, 8.236e-6, 2.923e-5
0.150, 8.163e-6, 2.964e-5
0.145, 8.085e-6, 3.004e-5
0.140, 8.016e-6, 3.045e-5
0.135, 7.940e-6, 3.084e-5
0.130, 7.878e-6, 3.124e-5
0.125, 7.807e-6, 3.163e-5
0.120, 7.750e-6, 3.201e-5
0.115, 7.684e-6, 3.240e-5
0.110, 7.614e-6, 3.278e-5
0.105, 7.551e-6, 3.316e-5
0.100, 7.502e-6, 3.353e-5
0.095, 7.448e-6, 3.390e-5
0.090, 7.399e-6, 3.427e-5
0.085, 7.348e-6, 3.464e-5
0.080, 7.303e-6, 3.501e-5
0.075, 7.256e-6, 3.537e-5
0.070, 7.214e-6, 3.573e-5
0.065, 7.168e-6, 3.609e-5
0.060, 7.134e-6, 3.645e-5
0.055, 7.095e-6, 3.680e-5
0.050, 7.058e-6, 3.715e-5
0.045, 7.017e-6, 3.750e-5
0.040, 6.988e-6, 3.785e-5
0.035, 6.954e-6, 3.820e-5
0.030, 6.928e-6, 3.855e-5
0.025, 6.896e-6, 3.889e-5
0.020, 6.870e-6, 3.924e-5
0.015, 6.851e-6, 3.958e-5
0.010, 6.828e-6, 3.992e-5
0.005, 6.809e-6, 4.026e-5
0.000, 6.796e-6, 4.060e-5
-0.005, 6.781e-6, 4.094e-5
-0.010, 6.774e-6, 4.128e-5
-0.015, 6.768e-6, 4.162e-5
-0.020, 6.771e-6, 4.195e-5
-0.025, 6.778e-6, 4.229e-5
-0.030, 6.791e-6, 4.263e-5
-0.035, 6.802e-6, 4.297e-5
-0.040, 6.826e-6, 4.331e-5
-0.045, 6.845e-6, 4.366e-5
-0.050, 6.872e-6, 4.400e-5
-0.055, 6.904e-6, 4.435e-5
-0.060, 6.935e-6, 4.469e-5
-0.065, 6.961e-6, 4.504e-5
-0.070, 6.995e-6, 4.539e-5
-0.075, 7.026e-6, 4.574e-5
-0.080, 7.055e-6, 4.609e-5
-0.085, 7.085e-6, 4.645e-5
-0.090, 7.112e-6, 4.680e-5
-0.095, 7.138e-6, 4.716e-5
-0.100, 7.162e-6, 4.752e-5
-0.105, 7.169e-6, 4.788e-5
-0.110, 7.178e-6, 4.824e-5
-0.115, 7.176e-6, 4.860e-5
-0.120, 7.176e-6, 4.895e-5
-0.125, 7.172e-6, 4.931e-5
-0.130, 7.171e-6, 4.967e-5
-0.135, 7.169e-6, 5.003e-5
-0.140, 7.173e-6, 5.039e-5
-0.145, 7.188e-6, 5.075e-5
-0.150, 7.208e-6, 5.111e-5
-0.155, 7.241e-6, 5.147e-5
-0.160, 7.283e-6, 5.183e-5
-0.165, 7.339e-6, 5.220e-5
-0.170, 7.403e-6, 5.257e-5
-0.175, 7.471e-6, 5.294e-5
-0.180, 7.559e-6, 5.332e-5
-0.185, 7.651e-6, 5.371e-5
-0.190, 7.731e-6, 5.409e-5
-0.195, 7.824e-6, 5.448e-5
-0.200, 7.914e-6, 5.488e-5
-0.205, 7.999e-6, 5.528e-5
-0.210, 8.068e-6, 5.568e-5
-0.215, 8.137e-6, 5.609e-5
-0.220, 8.196e-6, 5.650e-5
-0.225, 8.251e-6, 5.691e-5
-0.230, 8.285e-6, 5.733e-5
-0.235, 8.295e-6, 5.774e-5
-0.240, 8.290e-6, 5.815e-5
-0.245, 8.268e-6, 5.857e-5
-0.250, 8.231e-6, 5.898e-5
-0.255, 8.178e-6, 5.939e-5
-0.260, 8.120e-6, 5.979e-5
-0.265, 8.052e-6, 6.020e-5
-0.270, 7.986e-6, 6.060e-5
-0.275, 7.933e-6, 6.099e-5
-0.280, 5.917e-6, 6.129e-5

Segment 3:
-0.275, 4.549e-6, 6.152e-5
-0.270, 4.204e-6, 6.173e-5
-0.265, 4.001e-6, 6.193e-5
-0.260, 3.850e-6, 6.212e-5
-0.255, 3.745e-6, 6.231e-5
-0.250, 3.637e-6, 6.249e-5
-0.245, 3.563e-6, 6.267e-5
-0.240, 3.480e-6, 6.284e-5
-0.235, 3.420e-6, 6.301e-5
-0.230, 3.344e-6, 6.318e-5
-0.225, 3.319e-6, 6.334e-5
-0.220, 3.272e-6, 6.351e-5
-0.215, 3.265e-6, 6.367e-5
-0.210, 3.238e-6, 6.383e-5
-0.205, 3.243e-6, 6.400e-5
-0.200, 3.244e-6, 6.416e-5
-0.195, 3.258e-6, 6.432e-5
-0.190, 3.266e-6, 6.448e-5
-0.185, 3.289e-6, 6.465e-5
-0.180, 3.310e-6, 6.481e-5
-0.175, 3.352e-6, 6.498e-5
-0.170, 3.387e-6, 6.515e-5
-0.165, 3.432e-6, 6.532e-5
-0.160, 3.467e-6, 6.550e-5
-0.155, 3.495e-6, 6.567e-5
-0.150, 3.508e-6, 6.585e-5
-0.145, 3.521e-6, 6.602e-5
-0.140, 3.525e-6, 6.620e-5
-0.135, 3.517e-6, 6.637e-5
-0.130, 3.509e-6, 6.655e-5
-0.125, 3.497e-6, 6.672e-5
-0.120, 3.479e-6, 6.690e-5
-0.115, 3.464e-6, 6.707e-5
-0.110, 3.440e-6, 6.724e-5
-0.105, 3.416e-6, 6.741e-5
-0.100, 3.404e-6, 6.758e-5
-0.095, 3.379e-6, 6.775e-5
-0.090, 3.363e-6, 6.792e-5
-0.085, 3.347e-6, 6.809e-5
-0.080, 3.330e-6, 6.826e-5
-0.075, 3.323e-6, 6.842e-5
-0.070, 3.322e-6, 6.859e-5
-0.065, 3.332e-6, 6.875e-5
-0.060, 3.354e-6, 6.892e-5
-0.055, 3.390e-6, 6.909e-5
-0.050, 3.442e-6, 6.926e-5
-0.045, 3.506e-6, 6.944e-5
-0.040, 3.583e-6, 6.962e-5
-0.035, 3.664e-6, 6.980e-5
-0.030, 3.742e-6, 6.999e-5
-0.025, 3.821e-6, 7.018e-5
-0.020, 3.887e-6, 7.037e-5
-0.015, 3.951e-6, 7.057e-5
-0.010, 3.999e-6, 7.077e-5
-0.005, 4.040e-6, 7.097e-5
-0.000, 4.080e-6, 7.118e-5
0.005, 4.105e-6, 7.138e-5
0.010, 4.127e-6, 7.159e-5
0.015, 4.150e-6, 7.180e-5
0.020, 4.169e-6, 7.200e-5
0.025, 4.188e-6, 7.221e-5
0.030, 4.202e-6, 7.242e-5
0.035, 4.210e-6, 7.263e-5
0.040, 4.216e-6, 7.285e-5
0.045, 4.217e-6, 7.306e-5
0.050, 4.221e-6, 7.327e-5
0.055, 4.220e-6, 7.348e-5
0.060, 4.223e-6, 7.369e-5
0.065, 4.220e-6, 7.390e-5
0.070, 4.222e-6, 7.411e-5
0.075, 4.217e-6, 7.432e-5
0.080, 4.218e-6, 7.453e-5
0.085, 4.212e-6, 7.474e-5
0.090, 4.211e-6, 7.495e-5
0.095, 4.204e-6, 7.517e-5
0.100, 4.200e-6, 7.538e-5
0.105, 4.196e-6, 7.558e-5
0.110, 4.190e-6, 7.579e-5
0.115, 4.186e-6, 7.600e-5
0.120, 4.173e-6, 7.621e-5
0.125, 4.165e-6, 7.642e-5
0.130, 4.153e-6, 7.663e-5
0.135, 4.148e-6, 7.684e-5
0.140, 4.142e-6, 7.704e-5
0.145, 4.136e-6, 7.725e-5
0.150, 4.131e-6, 7.746e-5
0.155, 4.122e-6, 7.766e-5
0.160, 4.120e-6, 7.787e-5
0.165, 4.109e-6, 7.807e-5
0.170, 4.102e-6, 7.828e-5
0.175, 4.090e-6, 7.848e-5
0.180, 4.083e-6, 7.869e-5
0.185, 4.072e-6, 7.889e-5
0.190, 4.069e-6, 7.909e-5
0.195, 4.056e-6, 7.930e-5
0.200, 4.046e-6, 7.950e-5
0.205, 4.035e-6, 7.970e-5
0.210, 4.029e-6, 7.990e-5
0.215, 4.017e-6, 8.010e-5
0.220, 4.009e-6, 8.030e-5
0.225, 3.996e-6, 8.050e-5
0.230, 3.986e-6, 8.070e-5
0.235, 3.974e-6, 8.090e-5
0.240, 3.966e-6, 8.110e-5
0.245, 3.946e-6, 8.130e-5
0.250, 3.935e-6, 8.149e-5
0.255, 3.922e-6, 8.169e-5
0.260, 3.910e-6, 8.189e-5
0.265, 3.891e-6, 8.208e-5
0.270, 3.880e-6, 8.227e-5
0.275, 3.860e-6, 8.247e-5
0.280, 3.843e-6, 8.266e-5
0.285, 3.826e-6, 8.285e-5
0.290, 3.813e-6, 8.304e-5
0.295, 3.794e-6, 8.323e-5
0.300, 3.765e-6, 8.342e-5
0.305, 3.747e-6, 8.361e-5
0.310, 3.730e-6, 8.379e-5
0.315, 3.704e-6, 8.398e-5
0.320, 3.683e-6, 8.416e-5
0.325, 3.654e-6, 8.435e-5
0.330, 3.633e-6, 8.453e-5
0.335, 3.601e-6, 8.471e-5
0.340, 3.578e-6, 8.489e-5
0.345, 3.542e-6, 8.506e-5
0.350, 3.512e-6, 8.524e-5
0.355, 3.478e-6, 8.541e-5
0.360, 3.443e-6, 8.558e-5
0.365, 3.410e-6, 8.576e-5
0.370, 3.364e-6, 8.592e-5
0.375, 3.326e-6, 8.609e-5
0.380, 3.285e-6, 8.625e-5
0.385, 3.238e-6, 8.642e-5
0.390, 3.194e-6, 8.658e-5
0.395, 3.139e-6, 8.673e-5
0.400, 3.088e-6, 8.689e-5
0.405, 3.032e-6, 8.704e-5
0.410, 2.976e-6, 8.719e-5
0.415, 2.908e-6, 8.733e-5
0.420, 2.847e-6, 8.748e-5
0.425, 2.779e-6, 8.761e-5
0.430, 2.710e-6, 8.775e-5
0.435, 2.639e-6, 8.788e-5
0.440, 2.559e-6, 8.801e-5
0.445, 2.480e-6, 8.813e-5
0.450, 2.402e-6, 8.825e-5
0.455, 2.316e-6, 8.837e-5
0.460, 2.232e-6, 8.848e-5
0.465, 2.135e-6, 8.859e-5
0.470, 2.049e-6, 8.869e-5
0.475, 1.945e-6, 8.879e-5
0.480, 1.853e-6, 8.888e-5
0.485, 1.741e-6, 8.897e-5
0.490, 1.642e-6, 8.905e-5
0.495, 1.529e-6, 8.913e-5
0.500, 1.405e-6, 8.920e-5
0.505, 1.282e-6, 8.926e-5
0.510, 1.166e-6, 8.932e-5
0.515, 1.045e-6, 8.937e-5
0.520, 9.247e-7, 8.942e-5
0.525, 8.043e-7, 8.946e-5
0.530, 6.831e-7, 8.949e-5
0.535, 5.612e-7, 8.952e-5
0.540, 4.447e-7, 8.954e-5
0.545, 3.293e-7, 8.956e-5
0.550, 2.189e-7, 8.957e-5
0.555, 1.125e-7, 8.957e-5
0.560, 6.727e-9, 8.957e-5
0.565, -9.838e-8, 8.957e-5
0.570, -1.952e-7, 8.956e-5
0.575, -2.876e-7, 8.955e-5
0.580, -3.715e-7, 8.953e-5
0.585, -4.532e-7, 8.950e-5
0.590, -5.370e-7, 8.948e-5
0.595, -6.050e-7, 8.945e-5
0.600, -6.707e-7, 8.941e-5
0.605, -7.371e-7, 8.938e-5
0.610, -7.919e-7, 8.934e-5
0.615, -8.506e-7, 8.929e-5
0.620, -8.989e-7, 8.925e-5
0.625, -9.459e-7, 8.920e-5
0.630, -9.822e-7, 8.915e-5
0.635, -1.016e-6, 8.910e-5
0.640, -1.051e-6, 8.905e-5
0.645, -1.085e-6, 8.900e-5
0.650, -1.107e-6, 8.894e-5
0.655, -1.136e-6, 8.888e-5
0.660, -1.152e-6, 8.883e-5
0.665, -1.170e-6, 8.877e-5
0.670, -1.190e-6, 8.871e-5
0.675, -1.203e-6, 8.865e-5
0.680, -1.219e-6, 8.859e-5
0.685, -1.234e-6, 8.853e-5
0.690, -1.245e-6, 8.846e-5
0.695, -1.253e-6, 8.840e-5
0.700, -1.264e-6, 8.834e-5
0.705, -1.277e-6, 8.827e-5
0.710, -1.288e-6, 8.821e-5
0.715, -1.299e-6, 8.814e-5
0.720, -1.306e-6, 8.808e-5
0.725, -1.317e-6, 8.801e-5
0.730, -1.327e-6, 8.795e-5
0.735, -1.337e-6, 8.788e-5
0.740, -1.341e-6, 8.781e-5
0.745, -1.348e-6, 8.775e-5
0.750, -1.353e-6, 8.768e-5
0.755, -1.360e-6, 8.761e-5
0.760, -1.368e-6, 8.754e-5
0.765, -1.378e-6, 8.747e-5
0.770, -1.386e-6, 8.740e-5
0.775, -1.393e-6, 8.733e-5
0.780, -1.397e-6, 8.726e-5
0.785, -1.403e-6, 8.719e-5
0.790, -1.411e-6, 8.712e-5
0.795, -1.424e-6, 8.705e-5
0.800, -1.432e-6, 8.698e-5
0.805, -1.440e-6, 8.691e-5
0.810, -1.444e-6, 8.684e-5
0.815, -1.452e-6, 8.676e-5
0.820, -1.459e-6, 8.669e-5
0.825, -1.476e-6, 8.662e-5
0.830, -1.484e-6, 8.654e-5
0.835, -1.493e-6, 8.647e-5
0.840, -1.497e-6, 8.639e-5
0.845, -1.510e-6, 8.632e-5
0.850, -1.523e-6, 8.624e-5
0.855, -1.535e-6, 8.616e-5
0.860, -1.539e-6, 8.609e-5
0.865, -1.548e-6, 8.601e-5
0.870, -1.558e-6, 8.593e-5
0.875, -1.575e-6, 8.585e-5
0.880, -1.584e-6, 8.577e-5
0.885, -1.592e-6, 8.569e-5
0.890, -1.599e-6, 8.561e-5
0.895, -1.615e-6, 8.553e-5
0.900, -1.627e-6, 8.545e-5
0.905, -1.636e-6, 8.537e-5
0.910, -1.640e-6, 8.529e-5
0.915, -1.649e-6, 8.521e-5
0.920, -1.663e-6, 8.512e-5
0.925, -1.676e-6, 8.504e-5
0.930, -1.686e-6, 8.495e-5
0.935, -1.694e-6, 8.487e-5
0.940, -1.707e-6, 8.478e-5
0.945, -1.721e-6, 8.470e-5
0.950, -1.729e-6, 8.461e-5
0.955, -1.737e-6, 8.453e-5
0.960, -1.740e-6, 8.444e-5
0.965, -1.751e-6, 8.435e-5
0.970, -1.759e-6, 8.426e-5
0.975, -1.770e-6, 8.417e-5
0.980, -1.777e-6, 8.409e-5
0.985, -1.783e-6, 8.400e-5
0.990, -1.786e-6, 8.391e-5
0.995, -1.792e-6, 8.382e-5
1.000, -1.796e-6, 8.373e-5
1.005, -1.804e-6, 8.364e-5
1.010, -1.810e-6, 8.355e-5
1.015, -1.817e-6, 8.346e-5
1.020, -1.822e-6, 8.337e-5
1.025, -1.828e-6, 8.327e-5
1.030, -1.830e-6, 8.318e-5
1.035, -1.834e-6, 8.309e-5
1.040, -1.835e-6, 8.300e-5
1.045, -1.841e-6, 8.291e-5
1.050, -1.843e-6, 8.281e-5
1.055, -1.851e-6, 8.272e-5
1.060, -1.856e-6, 8.263e-5
1.065, -1.864e-6, 8.254e-5
1.070, -1.868e-6, 8.244e-5
1.075, -1.874e-6, 8.235e-5
1.080, -1.877e-6, 8.226e-5
1.085, -1.882e-6, 8.216e-5
1.090, -1.883e-6, 8.207e-5
1.095, -1.888e-6, 8.197e-5
1.100, -1.892e-6, 8.188e-5
1.105, -1.899e-6, 8.178e-5
1.110, -1.906e-6, 8.169e-5
1.115, -1.915e-6, 8.159e-5
1.120, -1.922e-6, 8.150e-5
1.125, -1.930e-6, 8.140e-5
1.130, -1.934e-6, 8.130e-5
1.135, -1.945e-6, 8.121e-5
1.140, -1.958e-6, 8.111e-5
1.145, -1.973e-6, 8.101e-5
1.150, -1.709e-6, 8.092e-5

Segment 4:
1.145, -1.351e-6, 8.086e-5
1.140, -1.120e-6, 8.080e-5
1.135, -9.426e-7, 8.075e-5
1.130, -8.026e-7, 8.071e-5
1.125, -6.921e-7, 8.068e-5
1.120, -5.958e-7, 8.065e-5
1.115, -5.210e-7, 8.062e-5
1.110, -4.559e-7, 8.060e-5
1.105, -4.012e-7, 8.058e-5
1.100, -3.527e-7, 8.056e-5
1.095, -3.170e-7, 8.055e-5
1.090, -2.750e-7, 8.053e-5
1.085, -2.443e-7, 8.052e-5
1.080, -2.192e-7, 8.051e-5
1.075, -1.908e-7, 8.050e-5
1.070, -1.712e-7, 8.049e-5
1.065, -1.574e-7, 8.048e-5
1.060, -1.424e-7, 8.048e-5
1.055, -1.161e-7, 8.047e-5
1.050, -9.911e-8, 8.047e-5
1.045, -8.548e-8, 8.046e-5
1.040, -7.602e-8, 8.046e-5
1.035, -6.591e-8, 8.045e-5
1.030, -4.774e-8, 8.045e-5
1.025, -3.626e-8, 8.045e-5
1.020, -2.636e-8, 8.045e-5
1.015, -2.176e-8, 8.045e-5
1.010, -1.120e-8, 8.045e-5
1.005, -2.548e-9, 8.045e-5
1.000, 8.372e-9, 8.045e-5
0.995, 1.275e-8, 8.045e-5
0.990, 1.977e-8, 8.045e-5
0.985, 2.113e-8, 8.045e-5
0.980, 2.852e-8, 8.045e-5
0.975, 3.178e-8, 8.045e-5
0.970, 4.118e-8, 8.045e-5
0.965, 4.774e-8, 8.046e-5
0.960, 5.505e-8, 8.046e-5
0.955, 5.967e-8, 8.046e-5
0.950, 6.591e-8, 8.047e-5
0.945, 6.686e-8, 8.047e-5
0.940, 7.258e-8, 8.047e-5
0.935, 7.369e-8, 8.048e-5
0.930, 8.013e-8, 8.048e-5
0.925, 8.460e-8, 8.049e-5
0.920, 9.193e-8, 8.049e-5
0.915, 9.664e-8, 8.049e-5
0.910, 1.044e-7, 8.050e-5
0.905, 1.083e-7, 8.051e-5
0.900, 1.138e-7, 8.051e-5
0.895, 1.153e-7, 8.052e-5
0.890, 1.207e-7, 8.052e-5
0.885, 1.217e-7, 8.053e-5
0.880, 1.275e-7, 8.054e-5
0.875, 1.307e-7, 8.054e-5
0.870, 1.381e-7, 8.055e-5
0.865, 1.431e-7, 8.056e-5
0.860, 1.497e-7, 8.056e-5
0.855, 1.553e-7, 8.057e-5
0.850, 1.605e-7, 8.058e-5
0.845, 1.635e-7, 8.059e-5
0.840, 1.693e-7, 8.060e-5
0.835, 1.706e-7, 8.060e-5
0.830, 1.776e-7, 8.061e-5
0.825, 1.823e-7, 8.062e-5
0.820, 1.881e-7, 8.063e-5
0.815, 1.970e-7, 8.064e-5
0.810, 2.045e-7, 8.065e-5
0.805, 2.086e-7, 8.066e-5
0.800, 2.150e-7, 8.067e-5
0.795, 2.184e-7, 8.068e-5
0.790, 2.244e-7, 8.069e-5
0.785, 2.300e-7, 8.071e-5
0.780, 2.375e-7, 8.072e-5
0.775, 2.464e-7, 8.073e-5
0.770, 2.541e-7, 8.074e-5
0.765, 2.654e-7, 8.076e-5
0.760, 2.732e-7, 8.077e-5
0.755, 2.828e-7, 8.078e-5
0.750, 2.900e-7, 8.080e-5
0.745, 2.986e-7, 8.081e-5
0.740, 3.058e-7, 8.083e-5
0.735, 3.119e-7, 8.084e-5
0.730, 3.209e-7, 8.086e-5
0.725, 3.304e-7, 8.088e-5
0.720, 3.458e-7, 8.089e-5
0.715, 3.551e-7, 8.091e-5
0.710, 3.655e-7, 8.093e-5
0.705, 3.752e-7, 8.095e-5
0.700, 3.921e-7, 8.097e-5
0.695, 4.030e-7, 8.099e-5
0.690, 4.152e-7, 8.101e-5
0.685, 4.284e-7, 8.103e-5
0.680, 4.472e-7, 8.105e-5
0.675, 4.587e-7, 8.108e-5
0.670, 4.755e-7, 8.110e-5
0.665, 4.923e-7, 8.112e-5
0.660, 5.086e-7, 8.115e-5
0.655, 5.250e-7, 8.118e-5
0.650, 5.469e-7, 8.120e-5
0.645, 5.642e-7, 8.123e-5
0.640, 5.915e-7, 8.126e-5
0.635, 6.085e-7, 8.129e-5
0.630, 6.316e-7, 8.132e-5
0.625, 6.602e-7, 8.136e-5
0.620, 6.868e-7, 8.139e-5
0.615, 7.096e-7, 8.143e-5
0.610, 7.446e-7, 8.146e-5
0.605, 7.742e-7, 8.150e-5
0.600, 8.054e-7, 8.154e-5
0.595, 8.422e-7, 8.158e-5
0.590, 8.814e-7, 8.163e-5
0.585, 9.177e-7, 8.167e-5
0.580, 9.611e-7, 8.172e-5
0.575, 1.002e-6, 8.177e-5
0.570, 1.057e-6, 8.183e-5
0.565, 1.103e-6, 8.188e-5
0.560, 1.162e-6, 8.194e-5
0.555, 1.222e-6, 8.200e-5
0.550, 1.285e-6, 8.206e-5
0.545, 1.354e-6, 8.213e-5
0.540, 1.449e-6, 8.220e-5
0.535, 1.530e-6, 8.228e-5
0.530, 1.620e-6, 8.236e-5
0.525, 1.711e-6, 8.245e-5
0.520, 1.819e-6, 8.254e-5
0.515, 1.935e-6, 8.264e-5
0.510, 2.062e-6, 8.274e-5
0.505, 2.197e-6, 8.285e-5
0.500, 2.356e-6, 8.297e-5
0.495, 2.521e-6, 8.309e-5
0.490, 2.712e-6, 8.323e-5
0.485, 2.926e-6, 8.337e-5
0.480, 3.163e-6, 8.353e-5
0.475, 3.424e-6, 8.370e-5
0.470, 3.714e-6, 8.389e-5
0.465, 4.034e-6, 8.409e-5
0.460, 4.388e-6, 8.431e-5
0.455, 4.790e-6, 8.455e-5
0.450, 5.210e-6, 8.481e-5
0.445, 5.655e-6, 8.509e-5
0.440, 6.137e-6, 8.540e-5
0.435, 6.634e-6, 8.573e-5
0.430, 7.142e-6, 8.609e-5
0.425, 7.662e-6, 8.647e-5
0.420, 8.183e-6, 8.688e-5
0.415, 8.673e-6, 8.731e-5
0.410, 9.131e-6, 8.777e-5
0.405, 9.565e-6, 8.825e-5
0.400, 9.958e-6, 8.875e-5
0.395, 1.029e-5, 8.926e-5
0.390, 1.059e-5, 8.979e-5
0.385, 1.082e-5, 9.033e-5
0.380, 1.100e-5, 9.088e-5
0.375, 1.111e-5, 9.144e-5
0.370, 1.116e-5, 9.200e-5
0.365, 1.116e-5, 9.255e-5
0.360, 1.113e-5, 9.311e-5
0.355, 1.105e-5, 9.366e-5
0.350, 1.094e-5, 9.421e-5
0.345, 1.079e-5, 9.475e-5
0.340, 1.063e-5, 9.528e-5
0.335, 1.046e-5, 9.580e-5
0.330, 1.028e-5, 9.632e-5
0.325, 1.009e-5, 9.682e-5
0.320, 9.905e-6, 9.732e-5
0.315, 9.715e-6, 9.780e-5
0.310, 9.534e-6, 9.828e-5
0.305, 9.348e-6, 9.875e-5
0.300, 9.167e-6, 9.921e-5
0.295, 8.993e-6, 9.966e-5
0.290, 8.825e-6, 1.001e-4
0.285, 8.664e-6, 1.005e-4
0.280, 8.509e-6, 1.010e-4
0.275, 8.356e-6, 1.014e-4
0.270, 8.216e-6, 1.018e-4
0.265, 8.079e-6, 1.022e-4
0.260, 7.952e-6, 1.026e-4
0.255, 7.817e-6, 1.030e-4
0.250, 7.701e-6, 1.034e-4
0.245, 7.560e-6, 1.037e-4
0.240, 7.458e-6, 1.041e-4
0.235, 7.352e-6, 1.045e-4
0.230, 7.247e-6, 1.048e-4
0.225, 7.153e-6, 1.052e-4
0.220, 7.060e-6, 1.056e-4
0.215, 6.967e-6, 1.059e-4
0.210, 6.884e-6, 1.062e-4
0.205, 6.804e-6, 1.066e-4
0.200, 6.728e-6, 1.069e-4
0.195, 6.650e-6, 1.073e-4
0.190, 6.581e-6, 1.076e-4
0.185, 6.512e-6, 1.079e-4
0.180, 6.448e-6, 1.082e-4
0.175, 6.381e-6, 1.086e-4
0.170, 6.329e-6, 1.089e-4
0.165, 6.265e-6, 1.092e-4
0.160, 6.212e-6, 1.095e-4
0.155, 6.157e-6, 1.098e-4
0.150, 6.102e-6, 1.101e-4
0.145, 6.044e-6, 1.104e-4
0.140, 6.001e-6, 1.107e-4
0.135, 5.956e-6, 1.110e-4
0.130, 5.918e-6, 1.113e-4
0.125, 5.875e-6, 1.116e-4
0.120, 5.840e-6, 1.119e-4
0.115, 5.796e-6, 1.122e-4
0.110, 5.763e-6, 1.125e-4
0.105, 5.728e-6, 1.128e-4
0.100, 5.698e-6, 1.130e-4
0.095, 5.659e-6, 1.133e-4
0.090, 5.634e-6, 1.136e-4
0.085, 5.602e-6, 1.139e-4
0.080, 5.576e-6, 1.142e-4
0.075, 5.550e-6, 1.144e-4
0.070, 5.525e-6, 1.147e-4
0.065, 5.500e-6, 1.150e-4
0.060, 5.476e-6, 1.153e-4
0.055, 5.455e-6, 1.155e-4
0.050, 5.438e-6, 1.158e-4
0.045, 5.414e-6, 1.161e-4
0.040, 5.405e-6, 1.163e-4
0.035, 5.385e-6, 1.166e-4
0.030, 5.374e-6, 1.169e-4
0.025, 5.362e-6, 1.172e-4
0.020, 5.355e-6, 1.174e-4
0.015, 5.345e-6, 1.177e-4
0.010, 5.342e-6, 1.180e-4
0.005, 5.340e-6, 1.182e-4
0.000, 5.342e-6, 1.185e-4
-0.005, 5.347e-6, 1.188e-4
-0.010, 5.356e-6, 1.190e-4
-0.015, 5.371e-6, 1.193e-4
-0.020, 5.393e-6, 1.196e-4
-0.025, 5.413e-6, 1.198e-4
-0.030, 5.451e-6, 1.201e-4
-0.035, 5.481e-6, 1.204e-4
-0.040, 5.527e-6, 1.207e-4
-0.045, 5.567e-6, 1.209e-4
-0.050, 5.614e-6, 1.212e-4
-0.055, 5.660e-6, 1.215e-4
-0.060, 5.716e-6, 1.218e-4
-0.065, 5.757e-6, 1.221e-4
-0.070, 5.806e-6, 1.224e-4
-0.075, 5.855e-6, 1.227e-4
-0.080, 5.901e-6, 1.230e-4
-0.085, 5.941e-6, 1.232e-4
-0.090, 5.979e-6, 1.235e-4
-0.095, 6.002e-6, 1.238e-4
-0.100, 6.035e-6, 1.241e-4
-0.105, 6.043e-6, 1.245e-4
-0.110, 6.047e-6, 1.248e-4
-0.115, 6.037e-6, 1.251e-4
-0.120, 6.031e-6, 1.254e-4
-0.125, 6.013e-6, 1.257e-4
-0.130, 6.011e-6, 1.260e-4
-0.135, 6.008e-6, 1.263e-4
-0.140, 6.011e-6, 1.266e-4
-0.145, 6.021e-6, 1.269e-4
-0.150, 6.052e-6, 1.272e-4
-0.155, 6.074e-6, 1.275e-4
-0.160, 6.132e-6, 1.278e-4
-0.165, 6.189e-6, 1.281e-4
-0.170, 6.268e-6, 1.284e-4
-0.175, 6.333e-6, 1.287e-4
-0.180, 6.440e-6, 1.290e-4
-0.185, 6.510e-6, 1.294e-4
-0.190, 6.613e-6, 1.297e-4
-0.195, 6.698e-6, 1.300e-4
-0.200, 6.793e-6, 1.304e-4
-0.205, 6.878e-6, 1.307e-4
-0.210, 6.964e-6, 1.311e-4
-0.215, 7.027e-6, 1.314e-4
-0.220, 7.099e-6, 1.318e-4
-0.225, 7.156e-6, 1.321e-4
-0.230, 7.190e-6, 1.325e-4
-0.235, 7.195e-6, 1.328e-4
-0.240, 7.190e-6, 1.332e-4
-0.245, 7.168e-6, 1.336e-4
-0.250, 7.131e-6, 1.339e-4
-0.255, 7.070e-6, 1.343e-4
-0.260, 7.021e-6, 1.346e-4
-0.265, 6.952e-6, 1.350e-4
-0.270, 6.910e-6, 1.353e-4
-0.275, 6.863e-6, 1.357e-4
-0.280, 4.849e-6, 1.359e-4

Segment 5:
-0.275, 3.493e-6, 1.361e-4
-0.270, 3.182e-6, 1.362e-4
-0.265, 2.981e-6, 1.364e-4
-0.260, 2.849e-6, 1.365e-4
-0.255, 2.724e-6, 1.367e-4
-0.250, 2.638e-6, 1.368e-4
-0.245, 2.560e-6, 1.369e-4
-0.240, 2.480e-6, 1.370e-4
-0.235, 2.417e-6, 1.372e-4
-0.230, 2.365e-6, 1.373e-4
-0.225, 2.316e-6, 1.374e-4
-0.220, 2.306e-6, 1.375e-4
-0.215, 2.279e-6, 1.376e-4
-0.210, 2.289e-6, 1.377e-4
-0.205, 2.285e-6, 1.379e-4
-0.200, 2.311e-6, 1.380e-4
-0.195, 2.335e-6, 1.381e-4
-0.190, 2.356e-6, 1.382e-4
-0.185, 2.389e-6, 1.383e-4
-0.180, 2.412e-6, 1.384e-4
-0.175, 2.465e-6, 1.386e-4
-0.170, 2.526e-6, 1.387e-4
-0.165, 2.566e-6, 1.388e-4
-0.160, 2.613e-6, 1.390e-4
-0.155, 2.648e-6, 1.391e-4
-0.150, 2.675e-6, 1.392e-4
-0.145, 2.686e-6, 1.394e-4
-0.140, 2.701e-6, 1.395e-4
-0.135, 2.699e-6, 1.396e-4
-0.130, 2.696e-6, 1.398e-4
-0.125, 2.679e-6, 1.399e-4
-0.120, 2.667e-6, 1.400e-4
-0.115, 2.656e-6, 1.402e-4
-0.110, 2.641e-6, 1.403e-4
-0.105, 2.615e-6, 1.404e-4
-0.100, 2.603e-6, 1.406e-4
-0.095, 2.583e-6, 1.407e-4
-0.090, 2.571e-6, 1.408e-4
-0.085, 2.542e-6, 1.409e-4
-0.080, 2.532e-6, 1.411e-4
-0.075, 2.510e-6, 1.412e-4
-0.070, 2.512e-6, 1.413e-4
-0.065, 2.507e-6, 1.414e-4
-0.060, 2.529e-6, 1.416e-4
-0.055, 2.550e-6, 1.417e-4
-0.050, 2.614e-6, 1.418e-4
-0.045, 2.676e-6, 1.420e-4
-0.040, 2.771e-6, 1.421e-4
-0.035, 2.861e-6, 1.422e-4
-0.030, 2.959e-6, 1.424e-4
-0.025, 3.048e-6, 1.425e-4
-0.020, 3.131e-6, 1.427e-4
-0.015, 3.201e-6, 1.429e-4
-0.010, 3.260e-6, 1.430e-4
-0.005, 3.306e-6, 1.432e-4
-0.000, 3.357e-6, 1.434e-4
0.005, 3.386e-6, 1.435e-4
0.010, 3.415e-6, 1.437e-4
0.015, 3.437e-6, 1.439e-4
0.020, 3.464e-6, 1.440e-4
0.025, 3.476e-6, 1.442e-4
0.030, 3.497e-6, 1.444e-4
0.035, 3.507e-6, 1.446e-4
0.040, 3.520e-6, 1.447e-4
0.045, 3.524e-6, 1.449e-4
0.050, 3.537e-6, 1.451e-4
0.055, 3.540e-6, 1.453e-4
0.060, 3.549e-6, 1.454e-4
0.065, 3.550e-6, 1.456e-4
0.070, 3.556e-6, 1.458e-4
0.075, 3.553e-6, 1.460e-4
0.080, 3.556e-6, 1.462e-4
0.085, 3.553e-6, 1.463e-4
0.090, 3.555e-6, 1.465e-4
0.095, 3.550e-6, 1.467e-4
0.100, 3.550e-6, 1.469e-4
0.105, 3.543e-6, 1.470e-4
0.110, 3.543e-6, 1.472e-4
0.115, 3.534e-6, 1.474e-4
0.120, 3.532e-6, 1.476e-4
0.125, 3.523e-6, 1.478e-4
0.130, 3.522e-6, 1.479e-4
0.135, 3.515e-6, 1.481e-4
0.140, 3.515e-6, 1.483e-4
0.145, 3.512e-6, 1.485e-4
0.150, 3.512e-6, 1.486e-4
0.155, 3.507e-6, 1.488e-4
0.160, 3.505e-6, 1.490e-4
0.165, 3.497e-6, 1.492e-4
0.170, 3.492e-6, 1.493e-4
0.175, 3.479e-6, 1.495e-4
0.180, 3.475e-6, 1.497e-4
0.185, 3.466e-6, 1.499e-4
0.190, 3.465e-6, 1.500e-4
0.195, 3.461e-6, 1.502e-4
0.200, 3.459e-6, 1.504e-4
0.205, 3.449e-6, 1.505e-4
0.210, 3.443e-6, 1.507e-4
0.215, 3.427e-6, 1.509e-4
0.220, 3.422e-6, 1.511e-4
0.225, 3.415e-6, 1.512e-4
0.230, 3.412e-6, 1.514e-4
0.235, 3.404e-6, 1.516e-4
0.240, 3.395e-6, 1.517e-4
0.245, 3.383e-6, 1.519e-4
0.250, 3.373e-6, 1.521e-4
0.255, 3.365e-6, 1.522e-4
0.260, 3.359e-6, 1.524e-4
0.265, 3.340e-6, 1.526e-4
0.270, 3.327e-6, 1.527e-4
0.275, 3.317e-6, 1.529e-4
0.280, 3.312e-6, 1.531e-4
0.285, 3.290e-6, 1.532e-4
0.290, 3.276e-6, 1.534e-4
0.295, 3.266e-6, 1.536e-4
0.300, 3.254e-6, 1.537e-4
0.305, 3.228e-6, 1.539e-4
0.310, 3.220e-6, 1.541e-4
0.315, 3.205e-6, 1.542e-4
0.320, 3.182e-6, 1.544e-4
0.325, 3.163e-6, 1.545e-4
0.330, 3.137e-6, 1.547e-4
0.335, 3.119e-6, 1.548e-4
0.340, 3.095e-6, 1.550e-4
0.345, 3.072e-6, 1.552e-4
0.350, 3.046e-6, 1.553e-4
0.355, 3.022e-6, 1.555e-4
0.360, 2.991e-6, 1.556e-4
0.365, 2.960e-6, 1.558e-4
0.370, 2.931e-6, 1.559e-4
0.375, 2.889e-6, 1.560e-4
0.380, 2.862e-6, 1.562e-4
0.385, 2.826e-6, 1.563e-4
0.390, 2.787e-6, 1.565e-4
0.395, 2.739e-6, 1.566e-4
0.400, 2.698e-6, 1.567e-4
0.405, 2.649e-6, 1.569e-4
0.410, 2.611e-6, 1.570e-4
0.415, 2.553e-6, 1.571e-4
0.420, 2.503e-6, 1.573e-4
0.425, 2.446e-6, 1.574e-4
0.430, 2.392e-6, 1.575e-4
0.435, 2.324e-6, 1.576e-4
0.440, 2.263e-6, 1.577e-4
0.445, 2.195e-6, 1.578e-4
0.450, 2.126e-6, 1.579e-4
0.455, 2.051e-6, 1.580e-4
0.460, 1.978e-6, 1.581e-4
0.465, 1.893e-6, 1.582e-4
0.470, 1.814e-6, 1.583e-4
0.475, 1.726e-6, 1.584e-4
0.480, 1.642e-6, 1.585e-4
0.485, 1.540e-6, 1.586e-4
0.490, 1.446e-6, 1.586e-4
0.495, 1.326e-6, 1.587e-4
0.500, 1.222e-6, 1.588e-4
0.505, 1.112e-6, 1.588e-4
0.510, 1.005e-6, 1.589e-4
0.515, 8.906e-7, 1.589e-4
0.520, 7.756e-7, 1.590e-4
0.525, 6.571e-7, 1.590e-4
0.530, 5.411e-7, 1.590e-4
0.535, 4.245e-7, 1.590e-4
0.540, 3.128e-7, 1.591e-4
0.545, 1.996e-7, 1.591e-4
0.550, 9.237e-8, 1.591e-4
0.555, -1.425e-8, 1.591e-4
0.560, -1.186e-7, 1.591e-4
0.565, -2.191e-7, 1.591e-4
0.570, -3.092e-7, 1.590e-4
0.575, -3.955e-7, 1.590e-4
0.580, -4.767e-7, 1.590e-4
0.585, -5.575e-7, 1.590e-4
0.590, -6.316e-7, 1.589e-4
0.595, -7.041e-7, 1.589e-4
0.600, -7.625e-7, 1.589e-4
0.605, -8.277e-7, 1.588e-4
0.610, -8.786e-7, 1.588e-4
0.615, -9.329e-7, 1.587e-4
0.620, -9.766e-7, 1.587e-4
0.625, -1.019e-6, 1.586e-4
0.630, -1.054e-6, 1.586e-4
0.635, -1.092e-6, 1.585e-4
0.640, -1.119e-6, 1.585e-4
0.645, -1.146e-6, 1.584e-4
0.650, -1.165e-6, 1.584e-4
0.655, -1.188e-6, 1.583e-4
0.660, -1.206e-6, 1.582e-4
0.665, -1.222e-6, 1.582e-4
0.670, -1.235e-6, 1.581e-4
0.675, -1.249e-6, 1.581e-4
0.680, -1.257e-6, 1.580e-4
0.685, -1.268e-6, 1.579e-4
0.690, -1.281e-6, 1.579e-4
0.695, -1.292e-6, 1.578e-4
0.700, -1.299e-6, 1.577e-4
0.705, -1.305e-6, 1.577e-4
0.710, -1.314e-6, 1.576e-4
0.715, -1.326e-6, 1.575e-4
0.720, -1.330e-6, 1.575e-4
0.725, -1.339e-6, 1.574e-4
0.730, -1.344e-6, 1.573e-4
0.735, -1.351e-6, 1.573e-4
0.740, -1.354e-6, 1.572e-4
0.745, -1.362e-6, 1.571e-4
0.750, -1.366e-6, 1.571e-4
0.755, -1.373e-6, 1.570e-4
0.760, -1.378e-6, 1.569e-4
0.765, -1.385e-6, 1.569e-4
0.770, -1.389e-6, 1.568e-4
0.775, -1.394e-6, 1.567e-4
0.780, -1.396e-6, 1.566e-4
0.785, -1.403e-6, 1.566e-4
0.790, -1.405e-6, 1.565e-4
0.795, -1.414e-6, 1.564e-4
0.800, -1.419e-6, 1.564e-4
0.805, -1.428e-6, 1.563e-4
0.810, -1.433e-6, 1.562e-4
0.815, -1.441e-6, 1.561e-4
0.820, -1.441e-6, 1.561e-4
0.825, -1.450e-6, 1.560e-4
0.830, -1.453e-6, 1.559e-4
0.835, -1.465e-6, 1.559e-4
0.840, -1.474e-6, 1.558e-4
0.845, -1.487e-6, 1.557e-4
0.850, -1.491e-6, 1.556e-4
0.855, -1.498e-6, 1.556e-4
0.860, -1.501e-6, 1.555e-4
0.865, -1.513e-6, 1.554e-4
0.870, -1.520e-6, 1.553e-4
0.875, -1.532e-6, 1.553e-4
0.880, -1.538e-6, 1.552e-4
0.885, -1.545e-6, 1.551e-4
0.890, -1.550e-6, 1.550e-4
0.895, -1.562e-6, 1.549e-4
0.900, -1.573e-6, 1.549e-4
0.905, -1.583e-6, 1.548e-4
0.910, -1.587e-6, 1.547e-4
0.915, -1.595e-6, 1.546e-4
0.920, -1.599e-6, 1.546e-4
0.925, -1.609e-6, 1.545e-4
0.930, -1.618e-6, 1.544e-4
0.935, -1.628e-6, 1.543e-4
0.940, -1.633e-6, 1.542e-4
0.945, -1.640e-6, 1.541e-4
0.950, -1.641e-6, 1.541e-4
0.955, -1.649e-6, 1.540e-4
0.960, -1.652e-6, 1.539e-4
0.965, -1.660e-6, 1.538e-4
0.970, -1.668e-6, 1.537e-4
0.975, -1.677e-6, 1.536e-4
0.980, -1.682e-6, 1.536e-4
0.985, -1.688e-6, 1.535e-4
0.990, -1.692e-6, 1.534e-4
0.995, -1.700e-6, 1.533e-4
1.000, -1.707e-6, 1.532e-4
1.005, -1.713e-6, 1.531e-4
1.010, -1.719e-6, 1.531e-4
1.015, -1.727e-6, 1.530e-4
1.020, -1.730e-6, 1.529e-4
1.025, -1.735e-6, 1.528e-4
1.030, -1.736e-6, 1.527e-4
1.035, -1.740e-6, 1.526e-4
1.040, -1.739e-6, 1.525e-4
1.045, -1.744e-6, 1.524e-4
1.050, -1.747e-6, 1.524e-4
1.055, -1.753e-6, 1.523e-4
1.060, -1.755e-6, 1.522e-4
1.065, -1.762e-6, 1.521e-4
1.070, -1.767e-6, 1.520e-4
1.075, -1.770e-6, 1.519e-4
1.080, -1.775e-6, 1.518e-4
1.085, -1.781e-6, 1.517e-4
1.090, -1.782e-6, 1.516e-4
1.095, -1.788e-6, 1.516e-4
1.100, -1.789e-6, 1.515e-4
1.105, -1.796e-6, 1.514e-4
1.110, -1.802e-6, 1.513e-4
1.115, -1.812e-6, 1.512e-4
1.120, -1.820e-6, 1.511e-4
1.125, -1.829e-6, 1.510e-4
1.130, -1.834e-6, 1.509e-4
1.135, -1.843e-6, 1.508e-4
1.140, -1.854e-6, 1.507e-4
1.145, -1.873e-6, 1.506e-4
1.150, -1.600e-6, 1.506e-4

Segment 6:
1.145, -1.259e-6, 1.505e-4
1.140, -1.037e-6, 1.505e-4
1.135, -8.687e-7, 1.504e-4
1.130, -7.359e-7, 1.504e-4
1.125, -6.361e-7, 1.503e-4
1.120, -5.479e-7, 1.503e-4
1.115, -4.707e-7, 1.503e-4
1.110, -4.139e-7, 1.503e-4
1.105, -3.639e-7, 1.503e-4
1.100, -3.196e-7, 1.502e-4
1.095, -2.795e-7, 1.502e-4
1.090, -2.457e-7, 1.502e-4
1.085, -2.214e-7, 1.502e-4
1.080, -1.892e-7, 1.502e-4
1.075, -1.730e-7, 1.502e-4
1.070, -1.541e-7, 1.502e-4
1.065, -1.376e-7, 1.502e-4
1.060, -1.145e-7, 1.502e-4
1.055, -9.364e-8, 1.502e-4
1.050, -8.092e-8, 1.502e-4
1.045, -7.541e-8, 1.501e-4
1.040, -6.012e-8, 1.501e-4
1.035, -4.395e-8, 1.501e-4
1.030, -3.042e-8, 1.501e-4
1.025, -2.657e-8, 1.501e-4
1.020, -1.682e-8, 1.501e-4
1.015, -8.472e-9, 1.501e-4
1.010, 3.613e-9, 1.501e-4
1.005, 1.124e-8, 1.501e-4
1.000, 1.866e-8, 1.501e-4
0.995, 1.934e-8, 1.501e-4
0.990, 2.608e-8, 1.501e-4
0.985, 2.849e-8, 1.501e-4
0.980, 3.666e-8, 1.501e-4
0.975, 4.336e-8, 1.501e-4
0.970, 5.250e-8, 1.501e-4
0.965, 5.814e-8, 1.502e-4
0.960, 6.434e-8, 1.502e-4
0.955, 6.570e-8, 1.502e-4
0.950, 7.110e-8, 1.502e-4
0.945, 7.132e-8, 1.502e-4
0.940, 7.756e-8, 1.502e-4
0.935, 8.025e-8, 1.502e-4
0.930, 8.881e-8, 1.502e-4
0.925, 9.415e-8, 1.502e-4
0.920, 1.014e-7, 1.502e-4
0.915, 1.061e-7, 1.502e-4
0.910, 1.123e-7, 1.502e-4
0.905, 1.138e-7, 1.502e-4
0.900, 1.187e-7, 1.502e-4
0.895, 1.197e-7, 1.502e-4
0.890, 1.243e-7, 1.502e-4
0.885, 1.264e-7, 1.502e-4
0.880, 1.324e-7, 1.502e-4
0.875, 1.381e-7, 1.502e-4
0.870, 1.449e-7, 1.502e-4
0.865, 1.512e-7, 1.503e-4
0.860, 1.576e-7, 1.503e-4
0.855, 1.608e-7, 1.503e-4
0.850, 1.656e-7, 1.503e-4
0.845, 1.676e-7, 1.503e-4
0.840, 1.730e-7, 1.503e-4
0.835, 1.758e-7, 1.503e-4
0.830, 1.831e-7, 1.503e-4
0.825, 1.897e-7, 1.503e-4
0.820, 1.967e-7, 1.503e-4
0.815, 2.028e-7, 1.503e-4
0.810, 2.106e-7, 1.504e-4
0.805, 2.128e-7, 1.504e-4
0.800, 2.192e-7, 1.504e-4
0.795, 2.219e-7, 1.504e-4
0.790, 2.281e-7, 1.504e-4
0.785, 2.350e-7, 1.504e-4
0.780, 2.425e-7, 1.504e-4
0.775, 2.538e-7, 1.504e-4
0.770, 2.604e-7, 1.505e-4
0.765, 2.714e-7, 1.505e-4
0.760, 2.791e-7, 1.505e-4
0.755, 2.877e-7, 1.505e-4
0.750, 2.965e-7, 1.505e-4
0.745, 3.035e-7, 1.505e-4
0.740, 3.111e-7, 1.505e-4
0.735, 3.153e-7, 1.506e-4
0.730, 3.261e-7, 1.506e-4
0.725, 3.381e-7, 1.506e-4
0.720, 3.522e-7, 1.506e-4
0.715, 3.597e-7, 1.506e-4
0.710, 3.702e-7, 1.506e-4
0.705, 3.823e-7, 1.507e-4
0.700, 3.985e-7, 1.507e-4
0.695, 4.076e-7, 1.507e-4
0.690, 4.213e-7, 1.507e-4
0.685, 4.371e-7, 1.507e-4
0.680, 4.546e-7, 1.508e-4
0.675, 4.636e-7, 1.508e-4
0.670, 4.840e-7, 1.508e-4
0.665, 4.990e-7, 1.508e-4
0.660, 5.146e-7, 1.509e-4
0.655, 5.341e-7, 1.509e-4
0.650, 5.548e-7, 1.509e-4
0.645, 5.736e-7, 1.509e-4
0.640, 5.992e-7, 1.510e-4
0.635, 6.160e-7, 1.510e-4
0.630, 6.417e-7, 1.510e-4
0.625, 6.720e-7, 1.511e-4
0.620, 6.960e-7, 1.511e-4
0.615, 7.226e-7, 1.511e-4
0.610, 7.549e-7, 1.512e-4
0.605, 7.871e-7, 1.512e-4
0.600, 8.217e-7, 1.513e-4
0.595, 8.548e-7, 1.513e-4
0.590, 8.961e-7, 1.514e-4
0.585, 9.351e-7, 1.514e-4
0.580, 9.817e-7, 1.514e-4
0.575, 1.023e-6, 1.515e-4
0.570, 1.074e-6, 1.516e-4
0.565, 1.128e-6, 1.516e-4
0.560, 1.186e-6, 1.517e-4
0.555, 1.245e-6, 1.517e-4
0.550, 1.312e-6, 1.518e-4
0.545, 1.389e-6, 1.519e-4
0.540, 1.483e-6, 1.519e-4
0.535, 1.566e-6, 1.520e-4
0.530, 1.662e-6, 1.521e-4
0.525, 1.754e-6, 1.522e-4
0.520, 1.866e-6, 1.523e-4
0.515, 1.986e-6, 1.524e-4
0.510, 2.117e-6, 1.525e-4
0.505, 2.266e-6, 1.526e-4
0.500, 2.423e-6, 1.527e-4
0.495, 2.601e-6, 1.529e-4
0.490, 2.804e-6, 1.530e-4
0.485, 3.025e-6, 1.531e-4
0.480, 3.278e-6, 1.533e-4
0.475, 3.547e-6, 1.535e-4
0.470, 3.852e-6, 1.537e-4
0.465, 4.191e-6, 1.539e-4
0.460, 4.568e-6, 1.541e-4
0.455, 4.977e-6, 1.544e-4
0.450, 5.411e-6, 1.546e-4
0.445, 5.867e-6, 1.549e-4
0.440, 6.361e-6, 1.552e-4
0.435, 6.852e-6, 1.556e-4
0.430, 7.354e-6, 1.560e-4
0.425, 7.862e-6, 1.563e-4
0.420, 8.337e-6, 1.568e-4
0.415, 8.787e-6, 1.572e-4
0.410, 9.186e-6, 1.577e-4
0.405, 9.550e-6, 1.581e-4
0.400, 9.862e-6, 1.586e-4
0.395, 1.011e-5, 1.591e-4
0.390, 1.031e-5, 1.597e-4
0.385, 1.044e-5, 1.602e-4
0.380, 1.052e-5, 1.607e-4
0.375, 1.054e-5, 1.612e-4
0.370, 1.051e-5, 1.618e-4
0.365, 1.044e-5, 1.623e-4
0.360, 1.034e-5, 1.628e-4
0.355, 1.020e-5, 1.633e-4
0.350, 1.004e-5, 1.638e-4
0.345, 9.871e-6, 1.643e-4
0.340, 9.693e-6, 1.648e-4
0.335, 9.501e-6, 1.653e-4
0.330, 9.313e-6, 1.657e-4
0.325, 9.114e-6, 1.662e-4
0.320, 8.930e-6, 1.666e-4
0.315, 8.743e-6, 1.671e-4
0.310, 8.568e-6, 1.675e-4
0.305, 8.388e-6, 1.679e-4
0.300, 8.226e-6, 1.683e-4
0.295, 8.060e-6, 1.687e-4
0.290, 7.913e-6, 1.691e-4
0.285, 7.756e-6, 1.695e-4
0.280, 7.602e-6, 1.699e-4
0.275, 7.462e-6, 1.703e-4
0.270, 7.336e-6, 1.706e-4
0.265, 7.212e-6, 1.710e-4
0.260, 7.096e-6, 1.713e-4
0.255, 6.981e-6, 1.717e-4
0.250, 6.878e-6, 1.720e-4
0.245, 6.773e-6, 1.724e-4
0.240, 6.681e-6, 1.727e-4
0.235, 6.582e-6, 1.730e-4
0.230, 6.499e-6, 1.734e-4
0.225, 6.411e-6, 1.737e-4
0.220, 6.333e-6, 1.740e-4
0.215, 6.246e-6, 1.743e-4
0.210, 6.177e-6, 1.746e-4
0.205, 6.096e-6, 1.749e-4
0.200, 6.025e-6, 1.752e-4
0.195, 5.955e-6, 1.755e-4
0.190, 5.897e-6, 1.758e-4
0.185, 5.835e-6, 1.761e-4
0.180, 5.783e-6, 1.764e-4
0.175, 5.723e-6, 1.767e-4
0.170, 5.674e-6, 1.770e-4
0.165, 5.620e-6, 1.773e-4
0.160, 5.575e-6, 1.775e-4
0.155, 5.529e-6, 1.778e-4
0.150, 5.488e-6, 1.781e-4
0.145, 5.442e-6, 1.784e-4
0.140, 5.405e-6, 1.786e-4
0.135, 5.363e-6, 1.789e-4
0.130, 5.325e-6, 1.792e-4
0.125, 5.291e-6, 1.794e-4
0.120, 5.260e-6, 1.797e-4
0.115, 5.221e-6, 1.799e-4
0.110, 5.198e-6, 1.802e-4
0.105, 5.164e-6, 1.805e-4
0.100, 5.137e-6, 1.807e-4
0.095, 5.108e-6, 1.810e-4
0.090, 5.081e-6, 1.812e-4
0.085, 5.058e-6, 1.815e-4
0.080, 5.033e-6, 1.817e-4
0.075, 5.011e-6, 1.820e-4
0.070, 4.990e-6, 1.822e-4
0.065, 4.970e-6, 1.825e-4
0.060, 4.954e-6, 1.827e-4
0.055, 4.931e-6, 1.830e-4
0.050, 4.919e-6, 1.832e-4
0.045, 4.902e-6, 1.835e-4
0.040, 4.891e-6, 1.837e-4
0.035, 4.876e-6, 1.840e-4
0.030, 4.873e-6, 1.842e-4
0.025, 4.863e-6, 1.844e-4
0.020, 4.860e-6, 1.847e-4
0.015, 4.854e-6, 1.849e-4
0.010, 4.854e-6, 1.852e-4
0.005, 4.857e-6, 1.854e-4
0.000, 4.862e-6, 1.857e-4
-0.005, 4.870e-6, 1.859e-4
-0.010, 4.892e-6, 1.861e-4
-0.015, 4.905e-6, 1.864e-4
-0.020, 4.934e-6, 1.866e-4
-0.025, 4.964e-6, 1.869e-4
-0.030, 5.004e-6, 1.871e-4
-0.035, 5.040e-6, 1.874e-4
-0.040, 5.095e-6, 1.876e-4
-0.045, 5.143e-6, 1.879e-4
-0.050, 5.201e-6, 1.882e-4
-0.055, 5.252e-6, 1.884e-4
-0.060, 5.314e-6, 1.887e-4
-0.065, 5.360e-6, 1.890e-4
-0.070, 5.422e-6, 1.892e-4
-0.075, 5.473e-6, 1.895e-4
-0.080, 5.518e-6, 1.898e-4
-0.085, 5.561e-6, 1.901e-4
-0.090, 5.600e-6, 1.903e-4
-0.095, 5.632e-6, 1.906e-4
-0.100, 5.655e-6, 1.909e-4
-0.105, 5.653e-6, 1.912e-4
-0.110, 5.650e-6, 1.915e-4
-0.115, 5.631e-6, 1.917e-4
-0.120, 5.619e-6, 1.920e-4
-0.125, 5.602e-6, 1.923e-4
-0.130, 5.591e-6, 1.926e-4
-0.135, 5.580e-6, 1.929e-4
-0.140, 5.587e-6, 1.931e-4
-0.145, 5.598e-6, 1.934e-4
-0.150, 5.624e-6, 1.937e-4
-0.155, 5.658e-6, 1.940e-4
-0.160, 5.707e-6, 1.943e-4
-0.165, 5.763e-6, 1.946e-4
-0.170, 5.838e-6, 1.949e-4
-0.175, 5.914e-6, 1.952e-4
-0.180, 6.021e-6, 1.955e-4
-0.185, 6.110e-6, 1.958e-4
-0.190, 6.214e-6, 1.961e-4
-0.195, 6.305e-6, 1.964e-4
-0.200, 6.408e-6, 1.967e-4
-0.205, 6.489e-6, 1.970e-4
-0.210, 6.584e-6, 1.974e-4
-0.215, 6.647e-6, 1.977e-4
-0.220, 6.718e-6, 1.980e-4
-0.225, 6.777e-6, 1.984e-4
-0.230, 6.808e-6, 1.987e-4
-0.235, 6.815e-6, 1.990e-4
-0.240, 6.806e-6, 1.994e-4
-0.245, 6.777e-6, 1.997e-4
-0.250, 6.742e-6, 2.001e-4
-0.255, 6.683e-6, 2.004e-4
-0.260, 6.621e-6, 2.007e-4
-0.265, 6.554e-6, 2.011e-4
-0.270, 6.510e-6, 2.014e-4
-0.275, 6.470e-6, 2.017e-4
-0.280, 4.438e-6, 2.019e-4

Segment 7:
-0.275, 3.082e-6, 2.021e-4
-0.270, 2.777e-6, 2.022e-4
-0.265, 2.577e-6, 2.024e-4
-0.260, 2.444e-6, 2.025e-4
-0.255, 2.327e-6, 2.026e-4
-0.250, 2.235e-6, 2.027e-4
-0.245, 2.166e-6, 2.028e-4
-0.240, 2.071e-6, 2.029e-4
-0.235, 2.002e-6, 2.030e-4
-0.230, 1.950e-6, 2.031e-4
-0.225, 1.905e-6, 2.032e-4
-0.220, 1.894e-6, 2.033e-4
-0.215, 1.879e-6, 2.034e-4
-0.210, 1.888e-6, 2.035e-4
-0.205, 1.900e-6, 2.036e-4
-0.200, 1.920e-6, 2.037e-4
-0.195, 1.946e-6, 2.038e-4
-0.190, 1.980e-6, 2.039e-4
-0.185, 2.011e-6, 2.040e-4
-0.180, 2.044e-6, 2.041e-4
-0.175, 2.102e-6, 2.042e-4
-0.170, 2.166e-6, 2.043e-4
-0.165, 2.213e-6, 2.044e-4
-0.160, 2.270e-6, 2.045e-4
-0.155, 2.304e-6, 2.046e-4
-0.150, 2.341e-6, 2.047e-4
-0.145, 2.350e-6, 2.049e-4
-0.140, 2.368e-6, 2.050e-4
-0.135, 2.362e-6, 2.051e-4
-0.130, 2.358e-6, 2.052e-4
-0.125, 2.346e-6, 2.053e-4
-0.120, 2.339e-6, 2.055e-4
-0.115, 2.322e-6, 2.056e-4
-0.110, 2.313e-6, 2.057e-4
-0.105, 2.283e-6, 2.058e-4
-0.100, 2.274e-6, 2.059e-4
-0.095, 2.251e-6, 2.060e-4
-0.090, 2.234e-6, 2.061e-4
-0.085, 2.206e-6, 2.062e-4
-0.080, 2.187e-6, 2.064e-4
-0.075, 2.159e-6, 2.065e-4
-0.070, 2.158e-6, 2.066e-4
-0.065, 2.141e-6, 2.067e-4
-0.060, 2.157e-6, 2.068e-4
-0.055, 2.184e-6, 2.069e-4
-0.050, 2.241e-6, 2.070e-4
-0.045, 2.312e-6, 2.071e-4
-0.040, 2.412e-6, 2.072e-4
-0.035, 2.512e-6, 2.074e-4
-0.030, 2.617e-6, 2.075e-4
-0.025, 2.712e-6, 2.076e-4
-0.020, 2.804e-6, 2.078e-4
-0.015, 2.876e-6, 2.079e-4
-0.010, 2.945e-6, 2.081e-4
-0.005, 2.996e-6, 2.082e-4
-0.000, 3.044e-6, 2.084e-4
0.005, 3.077e-6, 2.085e-4
0.010, 3.108e-6, 2.087e-4
0.015, 3.134e-6, 2.088e-4
0.020, 3.157e-6, 2.090e-4
0.025, 3.179e-6, 2.092e-4
0.030, 3.198e-6, 2.093e-4
0.035, 3.210e-6, 2.095e-4
0.040, 3.223e-6, 2.096e-4
0.045, 3.228e-6, 2.098e-4
0.050, 3.239e-6, 2.100e-4
0.055, 3.244e-6, 2.101e-4
0.060, 3.255e-6, 2.103e-4
0.065, 3.257e-6, 2.104e-4
0.070, 3.263e-6, 2.106e-4
0.075, 3.262e-6, 2.108e-4
0.080, 3.265e-6, 2.109e-4
0.085, 3.263e-6, 2.111e-4
0.090, 3.265e-6, 2.113e-4
0.095, 3.263e-6, 2.114e-4
0.100, 3.264e-6, 2.116e-4
0.105, 3.261e-6, 2.118e-4
0.110, 3.262e-6, 2.119e-4
0.115, 3.257e-6, 2.121e-4
0.120, 3.257e-6, 2.122e-4
0.125, 3.249e-6, 2.124e-4
0.130, 3.250e-6, 2.126e-4
0.135, 3.240e-6, 2.127e-4
0.140, 3.240e-6, 2.129e-4
0.145, 3.232e-6, 2.131e-4
0.150, 3.230e-6, 2.132e-4
0.155, 3.224e-6, 2.134e-4
0.160, 3.223e-6, 2.135e-4
0.165, 3.220e-6, 2.137e-4
0.170, 3.220e-6, 2.139e-4
0.175, 3.217e-6, 2.140e-4
0.180, 3.217e-6, 2.142e-4
0.185, 3.211e-6, 2.143e-4
0.190, 3.209e-6, 2.145e-4
0.195, 3.198e-6, 2.147e-4
0.200, 3.194e-6, 2.148e-4
0.205, 3.181e-6, 2.150e-4
0.210, 3.177e-6, 2.151e-4
0.215, 3.170e-6, 2.153e-4
0.220, 3.168e-6, 2.155e-4
0.225, 3.159e-6, 2.156e-4
0.230, 3.154e-6, 2.158e-4
0.235, 3.139e-6, 2.159e-4
0.240, 3.132e-6, 2.161e-4
0.245, 3.123e-6, 2.162e-4
0.250, 3.121e-6, 2.164e-4
0.255, 3.114e-6, 2.166e-4
0.260, 3.106e-6, 2.167e-4
0.265, 3.088e-6, 2.169e-4
0.270, 3.078e-6, 2.170e-4
0.275, 3.071e-6, 2.172e-4
0.280, 3.066e-6, 2.173e-4
0.285, 3.048e-6, 2.175e-4
0.290, 3.034e-6, 2.176e-4
0.295, 3.024e-6, 2.178e-4
0.300, 3.018e-6, 2.179e-4
0.305, 2.996e-6, 2.181e-4
0.310, 2.980e-6, 2.182e-4
0.315, 2.968e-6, 2.184e-4
0.320, 2.951e-6, 2.185e-4
0.325, 2.927e-6, 2.187e-4
0.330, 2.918e-6, 2.188e-4
0.335, 2.888e-6, 2.190e-4
0.340, 2.876e-6, 2.191e-4
0.345, 2.851e-6, 2.192e-4
0.350, 2.830e-6, 2.194e-4
0.355, 2.809e-6, 2.195e-4
0.360, 2.782e-6, 2.197e-4
0.365, 2.753e-6, 2.198e-4
0.370, 2.730e-6, 2.199e-4
0.375, 2.692e-6, 2.201e-4
0.380, 2.670e-6, 2.202e-4
0.385, 2.630e-6, 2.203e-4
0.390, 2.595e-6, 2.205e-4
0.395, 2.561e-6, 2.206e-4
0.400, 2.525e-6, 2.207e-4
0.405, 2.478e-6, 2.208e-4
0.410, 2.442e-6, 2.210e-4
0.415, 2.389e-6, 2.211e-4
0.420, 2.343e-6, 2.212e-4
0.425, 2.287e-6, 2.213e-4
0.430, 2.239e-6, 2.214e-4
0.435, 2.178e-6, 2.215e-4
0.440, 2.120e-6, 2.216e-4
0.445, 2.056e-6, 2.218e-4
0.450, 1.994e-6, 2.219e-4
0.455, 1.923e-6, 2.219e-4
0.460, 1.855e-6, 2.220e-4
0.465, 1.778e-6, 2.221e-4
0.470, 1.700e-6, 2.222e-4
0.475, 1.618e-6, 2.223e-4
0.480, 1.534e-6, 2.224e-4
0.485, 1.438e-6, 2.224e-4
0.490, 1.333e-6, 2.225e-4
0.495, 1.231e-6, 2.226e-4
0.500, 1.138e-6, 2.226e-4
0.505, 1.028e-6, 2.227e-4
0.510, 9.154e-7, 2.227e-4
0.515, 8.065e-7, 2.228e-4
0.520, 6.946e-7, 2.228e-4
0.525, 5.793e-7, 2.228e-4
0.530, 4.637e-7, 2.229e-4
0.535, 3.432e-7, 2.229e-4
0.540, 2.320e-7, 2.229e-4
0.545, 1.199e-7, 2.229e-4
0.550, 1.834e-8, 2.229e-4
0.555, -1.017e-7, 2.229e-4
0.560, -1.962e-7, 2.229e-4
0.565, -2.924e-7, 2.229e-4
0.570, -3.764e-7, 2.228e-4
0.575, -4.670e-7, 2.228e-4
0.580, -5.394e-7, 2.228e-4
0.585, -6.238e-7, 2.228e-4
0.590, -6.926e-7, 2.227e-4
0.595, -7.607e-7, 2.227e-4
0.600, -8.241e-7, 2.226e-4
0.605, -8.844e-7, 2.226e-4
0.610, -9.312e-7, 2.226e-4
0.615, -9.837e-7, 2.225e-4
0.620, -1.024e-6, 2.225e-4
0.625, -1.063e-6, 2.224e-4
0.630, -1.099e-6, 2.223e-4
0.635, -1.132e-6, 2.223e-4
0.640, -1.155e-6, 2.222e-4
0.645, -1.182e-6, 2.222e-4
0.650, -1.199e-6, 2.221e-4
0.655, -1.219e-6, 2.221e-4
0.660, -1.232e-6, 2.220e-4
0.665, -1.248e-6, 2.219e-4
0.670, -1.258e-6, 2.219e-4
0.675, -1.272e-6, 2.218e-4
0.680, -1.282e-6, 2.217e-4
0.685, -1.293e-6, 2.217e-4
0.690, -1.299e-6, 2.216e-4
0.695, -1.306e-6, 2.215e-4
0.700, -1.310e-6, 2.215e-4
0.705, -1.318e-6, 2.214e-4
0.710, -1.323e-6, 2.213e-4
0.715, -1.333e-6, 2.213e-4
0.720, -1.336e-6, 2.212e-4
0.725, -1.346e-6, 2.211e-4
0.730, -1.348e-6, 2.211e-4
0.735, -1.358e-6, 2.210e-4
0.740, -1.361e-6, 2.209e-4
0.745, -1.367e-6, 2.209e-4
0.750, -1.369e-6, 2.208e-4
0.755, -1.374e-6, 2.207e-4
0.760, -1.375e-6, 2.207e-4
0.765, -1.381e-6, 2.206e-4
0.770, -1.381e-6, 2.205e-4
0.775, -1.388e-6, 2.205e-4
0.780, -1.391e-6, 2.204e-4
0.785, -1.399e-6, 2.203e-4
0.790, -1.402e-6, 2.202e-4
0.795, -1.409e-6, 2.202e-4
0.800, -1.411e-6, 2.201e-4
0.805, -1.417e-6, 2.200e-4
0.810, -1.418e-6, 2.200e-4
0.815, -1.423e-6, 2.199e-4
0.820, -1.422e-6, 2.198e-4
0.825, -1.431e-6, 2.198e-4
0.830, -1.433e-6, 2.197e-4
0.835, -1.445e-6, 2.196e-4
0.840, -1.451e-6, 2.195e-4
0.845, -1.462e-6, 2.195e-4
0.850, -1.465e-6, 2.194e-4
0.855, -1.472e-6, 2.193e-4
0.860, -1.476e-6, 2.192e-4
0.865, -1.488e-6, 2.192e-4
0.870, -1.493e-6, 2.191e-4
0.875, -1.506e-6, 2.190e-4
0.880, -1.511e-6, 2.189e-4
0.885, -1.517e-6, 2.189e-4
0.890, -1.519e-6, 2.188e-4
0.895, -1.527e-6, 2.187e-4
0.900, -1.532e-6, 2.186e-4
0.905, -1.546e-6, 2.186e-4
0.910, -1.552e-6, 2.185e-4
0.915, -1.561e-6, 2.184e-4
0.920, -1.565e-6, 2.183e-4
0.925, -1.570e-6, 2.182e-4
0.930, -1.574e-6, 2.182e-4
0.935, -1.585e-6, 2.181e-4
0.940, -1.591e-6, 2.180e-4
0.945, -1.603e-6, 2.179e-4
0.950, -1.607e-6, 2.178e-4
0.955, -1.612e-6, 2.178e-4
0.960, -1.614e-6, 2.177e-4
0.965, -1.617e-6, 2.176e-4
0.970, -1.618e-6, 2.175e-4
0.975, -1.624e-6, 2.174e-4
0.980, -1.627e-6, 2.174e-4
0.985, -1.637e-6, 2.173e-4
0.990, -1.640e-6, 2.172e-4
0.995, -1.649e-6, 2.171e-4
1.000, -1.654e-6, 2.170e-4
1.005, -1.659e-6, 2.170e-4
1.010, -1.660e-6, 2.169e-4
1.015, -1.665e-6, 2.168e-4
1.020, -1.666e-6, 2.167e-4
1.025, -1.670e-6, 2.166e-4
1.030, -1.672e-6, 2.165e-4
1.035, -1.676e-6, 2.165e-4
1.040, -1.678e-6, 2.164e-4
1.045, -1.683e-6, 2.163e-4
1.050, -1.687e-6, 2.162e-4
1.055, -1.692e-6, 2.161e-4
1.060, -1.694e-6, 2.160e-4
1.065, -1.700e-6, 2.159e-4
1.070, -1.703e-6, 2.159e-4
1.075, -1.706e-6, 2.158e-4
1.080, -1.709e-6, 2.157e-4
1.085, -1.714e-6, 2.156e-4
1.090, -1.717e-6, 2.155e-4
1.095, -1.726e-6, 2.154e-4
1.100, -1.732e-6, 2.153e-4
1.105, -1.744e-6, 2.153e-4
1.110, -1.751e-6, 2.152e-4
1.115, -1.758e-6, 2.151e-4
1.120, -1.761e-6, 2.150e-4
1.125, -1.769e-6, 2.149e-4
1.130, -1.776e-6, 2.148e-4
1.135, -1.794e-6, 2.147e-4
1.140, -1.804e-6, 2.146e-4
1.145, -1.811e-6, 2.145e-4
1.150, -1.545e-6, 2.145e-4

Segment 8:
1.145, -1.209e-6, 2.144e-4
1.140, -9.906e-7, 2.144e-4
1.135, -8.289e-7, 2.143e-4
1.130, -7.001e-7, 2.143e-4
1.125, -6.023e-7, 2.143e-4
1.120, -5.169e-7, 2.142e-4
1.115, -4.485e-7, 2.142e-4
1.110, -3.869e-7, 2.142e-4
1.105, -3.446e-7, 2.142e-4
1.100, -2.969e-7, 2.142e-4
1.095, -2.578e-7, 2.141e-4
1.090, -2.329e-7, 2.141e-4
1.085, -2.022e-7, 2.141e-4
1.080, -1.770e-7, 2.141e-4
1.075, -1.525e-7, 2.141e-4
1.070, -1.364e-7, 2.141e-4
1.065, -1.231e-7, 2.141e-4
1.060, -1.124e-7, 2.141e-4
1.055, -9.695e-8, 2.141e-4
1.050, -7.343e-8, 2.141e-4
1.045, -5.963e-8, 2.141e-4
1.040, -4.729e-8, 2.141e-4
1.035, -3.899e-8, 2.141e-4
1.030, -1.985e-8, 2.141e-4
1.025, -1.076e-8, 2.141e-4
1.020, -4.099e-9, 2.141e-4
1.015, -2.866e-9, 2.141e-4
1.010, 4.459e-9, 2.141e-4
1.005, 9.002e-9, 2.141e-4
1.000, 2.345e-8, 2.141e-4
0.995, 2.940e-8, 2.141e-4
0.990, 3.981e-8, 2.141e-4
0.985, 4.124e-8, 2.141e-4
0.980, 4.604e-8, 2.141e-4
0.975, 4.657e-8, 2.141e-4
0.970, 5.277e-8, 2.141e-4
0.965, 5.549e-8, 2.141e-4
0.960, 6.503e-8, 2.141e-4
0.955, 6.978e-8, 2.141e-4
0.950, 8.073e-8, 2.141e-4
0.945, 8.363e-8, 2.141e-4
0.940, 9.015e-8, 2.141e-4
0.935, 9.167e-8, 2.141e-4
0.930, 9.532e-8, 2.141e-4
0.925, 9.583e-8, 2.141e-4
0.920, 1.015e-7, 2.141e-4
0.915, 1.026e-7, 2.141e-4
0.910, 1.113e-7, 2.141e-4
0.905, 1.153e-7, 2.141e-4
0.900, 1.246e-7, 2.141e-4
0.895, 1.293e-7, 2.142e-4
0.890, 1.362e-7, 2.142e-4
0.885, 1.381e-7, 2.142e-4
0.880, 1.420e-7, 2.142e-4
0.875, 1.427e-7, 2.142e-4
0.870, 1.460e-7, 2.142e-4
0.865, 1.479e-7, 2.142e-4
0.860, 1.539e-7, 2.142e-4
0.855, 1.582e-7, 2.142e-4
0.850, 1.693e-7, 2.142e-4
0.845, 1.741e-7, 2.142e-4
0.840, 1.838e-7, 2.142e-4
0.835, 1.856e-7, 2.142e-4
0.830, 1.909e-7, 2.143e-4
0.825, 1.917e-7, 2.143e-4
0.820, 1.961e-7, 2.143e-4
0.815, 1.986e-7, 2.143e-4
0.810, 2.094e-7, 2.143e-4
0.805, 2.153e-7, 2.143e-4
0.800, 2.270e-7, 2.143e-4
0.795, 2.338e-7, 2.143e-4
0.790, 2.412e-7, 2.143e-4
0.785, 2.463e-7, 2.144e-4
0.780, 2.534e-7, 2.144e-4
0.775, 2.596e-7, 2.144e-4
0.770, 2.645e-7, 2.144e-4
0.765, 2.719e-7, 2.144e-4
0.760, 2.787e-7, 2.144e-4
0.755, 2.858e-7, 2.144e-4
0.750, 2.937e-7, 2.144e-4
0.745, 2.987e-7, 2.145e-4
0.740, 3.132e-7, 2.145e-4
0.735, 3.243e-7, 2.145e-4
0.730, 3.349e-7, 2.145e-4
0.725, 3.395e-7, 2.145e-4
0.720, 3.519e-7, 2.145e-4
0.715, 3.638e-7, 2.146e-4
0.710, 3.792e-7, 2.146e-4
0.705, 3.862e-7, 2.146e-4
0.700, 3.978e-7, 2.146e-4
0.695, 4.109e-7, 2.146e-4
0.690, 4.301e-7, 2.147e-4
0.685, 4.383e-7, 2.147e-4
0.680, 4.567e-7, 2.147e-4
0.675, 4.748e-7, 2.147e-4
0.670, 4.873e-7, 2.148e-4
0.665, 4.985e-7, 2.148e-4
0.660, 5.252e-7, 2.148e-4
0.655, 5.352e-7, 2.148e-4
0.650, 5.607e-7, 2.149e-4
0.645, 5.802e-7, 2.149e-4
0.640, 6.031e-7, 2.149e-4
0.635, 6.291e-7, 2.150e-4
0.630, 6.509e-7, 2.150e-4
0.625, 6.737e-7, 2.150e-4
0.620, 7.020e-7, 2.151e-4
0.615, 7.293e-7, 2.151e-4
0.610, 7.645e-7, 2.151e-4
0.605, 7.902e-7, 2.152e-4
0.600, 8.315e-7, 2.152e-4
0.595, 8.677e-7, 2.153e-4
0.590, 9.049e-7, 2.153e-4
0.585, 9.433e-7, 2.153e-4
0.580, 9.912e-7, 2.154e-4
0.575, 1.038e-6, 2.154e-4
0.570, 1.086e-6, 2.155e-4
0.565, 1.140e-6, 2.156e-4
0.560, 1.202e-6, 2.156e-4
0.555, 1.262e-6, 2.157e-4
0.550, 1.330e-6, 2.157e-4
0.545, 1.418e-6, 2.158e-4
0.540, 1.505e-6, 2.159e-4
0.535, 1.588e-6, 2.160e-4
0.530, 1.687e-6, 2.161e-4
0.525, 1.782e-6, 2.161e-4
0.520, 1.898e-6, 2.162e-4
0.515, 2.018e-6, 2.163e-4
0.510, 2.158e-6, 2.165e-4
0.505, 2.307e-6, 2.166e-4
0.500, 2.475e-6, 2.167e-4
0.495, 2.655e-6, 2.168e-4
0.490, 2.863e-6, 2.170e-4
0.485, 3.096e-6, 2.171e-4
0.480, 3.354e-6, 2.173e-4
0.475, 3.638e-6, 2.175e-4
0.470, 3.958e-6, 2.177e-4
0.465, 4.307e-6, 2.179e-4
0.460, 4.711e-6, 2.181e-4
0.455, 5.121e-6, 2.184e-4
0.450, 5.570e-6, 2.187e-4
0.445, 6.040e-6, 2.190e-4
0.440, 6.540e-6, 2.193e-4
0.435, 7.036e-6, 2.196e-4
0.430, 7.538e-6, 2.200e-4
0.425, 8.031e-6, 2.204e-4
0.420, 8.493e-6, 2.208e-4
0.415, 8.913e-6, 2.213e-4
0.410, 9.282e-6, 2.217e-4
0.405, 9.602e-6, 2.222e-4
0.400, 9.877e-6, 2.227e-4
0.395, 1.008e-5, 2.232e-4
0.390, 1.023e-5, 2.237e-4
0.385, 1.030e-5, 2.243e-4
0.380, 1.034e-5, 2.248e-4
0.375, 1.031e-5, 2.253e-4
0.370, 1.024e-5, 2.258e-4
0.365, 1.013e-5, 2.263e-4
0.360, 9.993e-6, 2.268e-4
0.355, 9.831e-6, 2.273e-4
0.350, 9.661e-6, 2.278e-4
0.345, 9.469e-6, 2.283e-4
0.340, 9.278e-6, 2.287e-4
0.335, 9.077e-6, 2.292e-4
0.330, 8.885e-6, 2.296e-4
0.325, 8.690e-6, 2.300e-4
0.320, 8.505e-6, 2.305e-4
0.315, 8.321e-6, 2.309e-4
0.310, 8.148e-6, 2.313e-4
0.305, 7.977e-6, 2.317e-4
0.300, 7.820e-6, 2.321e-4
0.295, 7.649e-6, 2.325e-4
0.290, 7.497e-6, 2.328e-4
0.285, 7.354e-6, 2.332e-4
0.280, 7.223e-6, 2.336e-4
0.275, 7.091e-6, 2.339e-4
0.270, 6.972e-6, 2.343e-4
0.265, 6.856e-6, 2.346e-4
0.260, 6.750e-6, 2.350e-4
0.255, 6.638e-6, 2.353e-4
0.250, 6.542e-6, 2.356e-4
0.245, 6.442e-6, 2.359e-4
0.240, 6.357e-6, 2.363e-4
0.235, 6.264e-6, 2.366e-4
0.230, 6.182e-6, 2.369e-4
0.225, 6.097e-6, 2.372e-4
0.220, 6.016e-6, 2.375e-4
0.215, 5.940e-6, 2.378e-4
0.210, 5.873e-6, 2.381e-4
0.205, 5.800e-6, 2.384e-4
0.200, 5.742e-6, 2.386e-4
0.195, 5.680e-6, 2.389e-4
0.190, 5.622e-6, 2.392e-4
0.185, 5.563e-6, 2.395e-4
0.180, 5.518e-6, 2.398e-4
0.175, 5.460e-6, 2.400e-4
0.170, 5.417e-6, 2.403e-4
0.165, 5.365e-6, 2.406e-4
0.160, 5.323e-6, 2.408e-4
0.155, 5.278e-6, 2.411e-4
0.150, 5.240e-6, 2.414e-4
0.145, 5.204e-6, 2.416e-4
0.140, 5.170e-6, 2.419e-4
0.135, 5.126e-6, 2.421e-4
0.130, 5.095e-6, 2.424e-4
0.125, 5.065e-6, 2.427e-4
0.120, 5.031e-6, 2.429e-4
0.115, 5.002e-6, 2.432e-4
0.110, 4.977e-6, 2.434e-4
0.105, 4.944e-6, 2.437e-4
0.100, 4.924e-6, 2.439e-4
0.095, 4.890e-6, 2.441e-4
0.090, 4.876e-6, 2.444e-4
0.085, 4.844e-6, 2.446e-4
0.080, 4.830e-6, 2.449e-4
0.075, 4.805e-6, 2.451e-4
0.070, 4.785e-6, 2.454e-4
0.065, 4.773e-6, 2.456e-4
0.060, 4.755e-6, 2.458e-4
0.055, 4.733e-6, 2.461e-4
0.050, 4.726e-6, 2.463e-4
0.045, 4.707e-6, 2.465e-4
0.040, 4.696e-6, 2.468e-4
0.035, 4.685e-6, 2.470e-4
0.030, 4.684e-6, 2.472e-4
0.025, 4.676e-6, 2.475e-4
0.020, 4.678e-6, 2.477e-4
0.015, 4.673e-6, 2.479e-4
0.010, 4.677e-6, 2.482e-4
0.005, 4.678e-6, 2.484e-4
0.000, 4.688e-6, 2.486e-4
-0.005, 4.698e-6, 2.489e-4
-0.010, 4.716e-6, 2.491e-4
-0.015, 4.740e-6, 2.494e-4
-0.020, 4.770e-6, 2.496e-4
-0.025, 4.802e-6, 2.498e-4
-0.030, 4.846e-6, 2.501e-4
-0.035, 4.891e-6, 2.503e-4
-0.040, 4.947e-6, 2.506e-4
-0.045, 4.998e-6, 2.508e-4
-0.050, 5.059e-6, 2.511e-4
-0.055, 5.118e-6, 2.513e-4
-0.060, 5.182e-6, 2.516e-4
-0.065, 5.234e-6, 2.518e-4
-0.070, 5.292e-6, 2.521e-4
-0.075, 5.346e-6, 2.524e-4
-0.080, 5.402e-6, 2.526e-4
-0.085, 5.436e-6, 2.529e-4
-0.090, 5.483e-6, 2.532e-4
-0.095, 5.507e-6, 2.535e-4
-0.100, 5.530e-6, 2.537e-4
-0.105, 5.524e-6, 2.540e-4
-0.110, 5.515e-6, 2.543e-4
-0.115, 5.484e-6, 2.546e-4
-0.120, 5.475e-6, 2.548e-4
-0.125, 5.452e-6, 2.551e-4
-0.130, 5.447e-6, 2.554e-4
-0.135, 5.427e-6, 2.557e-4
-0.140, 5.432e-6, 2.559e-4
-0.145, 5.441e-6, 2.562e-4
-0.150, 5.472e-6, 2.565e-4
-0.155, 5.509e-6, 2.568e-4
-0.160, 5.558e-6, 2.570e-4
-0.165, 5.618e-6, 2.573e-4
-0.170, 5.691e-6, 2.576e-4
-0.175, 5.772e-6, 2.579e-4
-0.180, 5.875e-6, 2.582e-4
-0.185, 5.975e-6, 2.585e-4
-0.190, 6.076e-6, 2.588e-4
-0.195, 6.172e-6, 2.591e-4
-0.200, 6.279e-6, 2.594e-4
-0.205, 6.364e-6, 2.597e-4
-0.210, 6.463e-6, 2.600e-4
-0.215, 6.521e-6, 2.604e-4
-0.220, 6.598e-6, 2.607e-4
-0.225, 6.641e-6, 2.610e-4
-0.230, 6.688e-6, 2.614e-4
-0.235, 6.688e-6, 2.617e-4
-0.240, 6.684e-6, 2.620e-4
-0.245, 6.636e-6, 2.624e-4
-0.250, 6.603e-6, 2.627e-4
-0.255, 6.532e-6, 2.630e-4
-0.260, 6.484e-6, 2.633e-4
-0.265, 6.414e-6, 2.637e-4
-0.270, 6.361e-6, 2.640e-4
-0.275, 6.325e-6, 2.643e-4
-0.280, 4.297e-6, 2.645e-4

Segment 9:
-0.275, 2.936e-6, 2.647e-4
-0.270, 2.634e-6, 2.648e-4
-0.265, 2.449e-6, 2.649e-4
-0.260, 2.310e-6, 2.650e-4
-0.255, 2.205e-6, 2.651e-4
-0.250, 2.112e-6, 2.653e-4
-0.245, 2.018e-6, 2.654e-4
-0.240, 1.949e-6, 2.654e-4
-0.235, 1.861e-6, 2.655e-4
-0.230, 1.818e-6, 2.656e-4
-0.225, 1.770e-6, 2.657e-4
-0.220, 1.767e-6, 2.658e-4
-0.215, 1.740e-6, 2.659e-4
-0.210, 1.755e-6, 2.660e-4
-0.205, 1.759e-6, 2.661e-4
-0.200, 1.794e-6, 2.662e-4
-0.195, 1.822e-6, 2.663e-4
-0.190, 1.850e-6, 2.663e-4
-0.185, 1.890e-6, 2.664e-4
-0.180, 1.922e-6, 2.665e-4
-0.175, 1.986e-6, 2.666e-4
-0.170, 2.055e-6, 2.667e-4
-0.165, 2.109e-6, 2.668e-4
-0.160, 2.168e-6, 2.670e-4
-0.155, 2.204e-6, 2.671e-4
-0.150, 2.247e-6, 2.672e-4
-0.145, 2.251e-6, 2.673e-4
-0.140, 2.275e-6, 2.674e-4
-0.135, 2.266e-6, 2.675e-4
-0.130, 2.263e-6, 2.676e-4
-0.125, 2.247e-6, 2.677e-4
-0.120, 2.243e-6, 2.679e-4
-0.115, 2.229e-6, 2.680e-4
-0.110, 2.212e-6, 2.681e-4
-0.105, 2.196e-6, 2.682e-4
-0.100, 2.183e-6, 2.683e-4
-0.095, 2.158e-6, 2.684e-4
-0.090, 2.137e-6, 2.685e-4
-0.085, 2.109e-6, 2.686e-4
-0.080, 2.086e-6, 2.687e-4
-0.075, 2.055e-6, 2.688e-4
-0.070, 2.040e-6, 2.689e-4
-0.065, 2.029e-6, 2.690e-4
-0.060, 2.043e-6, 2.691e-4
-0.055, 2.065e-6, 2.692e-4
-0.050, 2.127e-6, 2.693e-4
-0.045, 2.197e-6, 2.694e-4
-0.040, 2.303e-6, 2.696e-4
-0.035, 2.406e-6, 2.697e-4
-0.030, 2.524e-6, 2.698e-4
-0.025, 2.618e-6, 2.699e-4
-0.020, 2.716e-6, 2.701e-4
-0.015, 2.794e-6, 2.702e-4
-0.010, 2.864e-6, 2.704e-4
-0.005, 2.909e-6, 2.705e-4
-0.000, 2.967e-6, 2.706e-4
0.005, 2.997e-6, 2.708e-4
0.010, 3.033e-6, 2.710e-4
0.015, 3.053e-6, 2.711e-4
0.020, 3.084e-6, 2.713e-4
0.025, 3.099e-6, 2.714e-4
0.030, 3.119e-6, 2.716e-4
0.035, 3.130e-6, 2.717e-4
0.040, 3.147e-6, 2.719e-4
0.045, 3.157e-6, 2.720e-4
0.050, 3.172e-6, 2.722e-4
0.055, 3.173e-6, 2.724e-4
0.060, 3.184e-6, 2.725e-4
0.065, 3.186e-6, 2.727e-4
0.070, 3.195e-6, 2.728e-4
0.075, 3.194e-6, 2.730e-4
0.080, 3.201e-6, 2.732e-4
0.085, 3.200e-6, 2.733e-4
0.090, 3.205e-6, 2.735e-4
0.095, 3.200e-6, 2.736e-4
0.100, 3.201e-6, 2.738e-4
0.105, 3.198e-6, 2.740e-4
0.110, 3.200e-6, 2.741e-4
0.115, 3.193e-6, 2.743e-4
0.120, 3.194e-6, 2.744e-4
0.125, 3.187e-6, 2.746e-4
0.130, 3.187e-6, 2.748e-4
0.135, 3.180e-6, 2.749e-4
0.140, 3.181e-6, 2.751e-4
0.145, 3.174e-6, 2.752e-4
0.150, 3.174e-6, 2.754e-4
0.155, 3.170e-6, 2.755e-4
0.160, 3.170e-6, 2.757e-4
0.165, 3.165e-6, 2.759e-4
0.170, 3.166e-6, 2.760e-4
0.175, 3.158e-6, 2.762e-4
0.180, 3.157e-6, 2.763e-4
0.185, 3.145e-6, 2.765e-4
0.190, 3.143e-6, 2.767e-4
0.195, 3.133e-6, 2.768e-4
0.200, 3.131e-6, 2.770e-4
0.205, 3.124e-6, 2.771e-4
0.210, 3.123e-6, 2.773e-4
0.215, 3.120e-6, 2.774e-4
0.220, 3.119e-6, 2.776e-4
0.225, 3.111e-6, 2.777e-4
0.230, 3.105e-6, 2.779e-4
0.235, 3.091e-6, 2.781e-4
0.240, 3.085e-6, 2.782e-4
0.245, 3.075e-6, 2.784e-4
0.250, 3.073e-6, 2.785e-4
0.255, 3.067e-6, 2.787e-4
0.260, 3.062e-6, 2.788e-4
0.265, 3.045e-6, 2.790e-4
0.270, 3.035e-6, 2.791e-4
0.275, 3.025e-6, 2.793e-4
0.280, 3.022e-6, 2.794e-4
0.285, 3.011e-6, 2.796e-4
0.290, 2.997e-6, 2.797e-4
0.295, 2.982e-6, 2.799e-4
0.300, 2.975e-6, 2.800e-4
0.305, 2.957e-6, 2.802e-4
0.310, 2.941e-6, 2.803e-4
0.315, 2.926e-6, 2.805e-4
0.320, 2.919e-6, 2.806e-4
0.325, 2.891e-6, 2.808e-4
0.330, 2.879e-6, 2.809e-4
0.335, 2.864e-6, 2.810e-4
0.340, 2.839e-6, 2.812e-4
0.345, 2.824e-6, 2.813e-4
0.350, 2.804e-6, 2.815e-4
0.355, 2.778e-6, 2.816e-4
0.360, 2.756e-6, 2.817e-4
0.365, 2.729e-6, 2.819e-4
0.370, 2.701e-6, 2.820e-4
0.375, 2.675e-6, 2.822e-4
0.380, 2.641e-6, 2.823e-4
0.385, 2.613e-6, 2.824e-4
0.390, 2.582e-6, 2.825e-4
0.395, 2.539e-6, 2.827e-4
0.400, 2.501e-6, 2.828e-4
0.405, 2.463e-6, 2.829e-4
0.410, 2.432e-6, 2.830e-4
0.415, 2.377e-6, 2.832e-4
0.420, 2.335e-6, 2.833e-4
0.425, 2.279e-6, 2.834e-4
0.430, 2.229e-6, 2.835e-4
0.435, 2.170e-6, 2.836e-4
0.440, 2.112e-6, 2.837e-4
0.445, 2.050e-6, 2.838e-4
0.450, 1.990e-6, 2.839e-4
0.455, 1.918e-6, 2.840e-4
0.460, 1.851e-6, 2.841e-4
0.465, 1.775e-6, 2.842e-4
0.470, 1.699e-6, 2.843e-4
0.475, 1.617e-6, 2.844e-4
0.480, 1.534e-6, 2.844e-4
0.485, 1.435e-6, 2.845e-4
0.490, 1.333e-6, 2.846e-4
0.495, 1.230e-6, 2.846e-4
0.500, 1.135e-6, 2.847e-4
0.505, 1.027e-6, 2.847e-4
0.510, 9.110e-7, 2.848e-4
0.515, 7.958e-7, 2.848e-4
0.520, 6.811e-7, 2.849e-4
0.525, 5.624e-7, 2.849e-4
0.530, 4.495e-7, 2.849e-4
0.535, 3.261e-7, 2.849e-4
0.540, 2.163e-7, 2.849e-4
0.545, 9.975e-8, 2.849e-4
0.550, -1.243e-8, 2.849e-4
0.555, -1.256e-7, 2.849e-4
0.560, -2.204e-7, 2.849e-4
0.565, -3.220e-7, 2.849e-4
0.570, -4.076e-7, 2.849e-4
0.575, -4.939e-7, 2.849e-4
0.580, -5.727e-7, 2.848e-4
0.585, -6.510e-7, 2.848e-4
0.590, -7.243e-7, 2.848e-4
0.595, -7.915e-7, 2.847e-4
0.600, -8.504e-7, 2.847e-4
0.605, -9.111e-7, 2.846e-4
0.610, -9.610e-7, 2.846e-4
0.615, -1.012e-6, 2.845e-4
0.620, -1.051e-6, 2.845e-4
0.625, -1.095e-6, 2.844e-4
0.630, -1.122e-6, 2.844e-4
0.635, -1.153e-6, 2.843e-4
0.640, -1.177e-6, 2.843e-4
0.645, -1.202e-6, 2.842e-4
0.650, -1.216e-6, 2.841e-4
0.655, -1.238e-6, 2.841e-4
0.660, -1.249e-6, 2.840e-4
0.665, -1.262e-6, 2.840e-4
0.670, -1.275e-6, 2.839e-4
0.675, -1.289e-6, 2.838e-4
0.680, -1.294e-6, 2.838e-4
0.685, -1.302e-6, 2.837e-4
0.690, -1.308e-6, 2.836e-4
0.695, -1.315e-6, 2.836e-4
0.700, -1.320e-6, 2.835e-4
0.705, -1.327e-6, 2.834e-4
0.710, -1.331e-6, 2.834e-4
0.715, -1.343e-6, 2.833e-4
0.720, -1.344e-6, 2.832e-4
0.725, -1.350e-6, 2.832e-4
0.730, -1.353e-6, 2.831e-4
0.735, -1.361e-6, 2.830e-4
0.740, -1.364e-6, 2.830e-4
0.745, -1.370e-6, 2.829e-4
0.750, -1.371e-6, 2.828e-4
0.755, -1.376e-6, 2.828e-4
0.760, -1.377e-6, 2.827e-4
0.765, -1.382e-6, 2.826e-4
0.770, -1.382e-6, 2.826e-4
0.775, -1.388e-6, 2.825e-4
0.780, -1.388e-6, 2.824e-4
0.785, -1.395e-6, 2.823e-4
0.790, -1.396e-6, 2.823e-4
0.795, -1.403e-6, 2.822e-4
0.800, -1.405e-6, 2.821e-4
0.805, -1.410e-6, 2.821e-4
0.810, -1.411e-6, 2.820e-4
0.815, -1.418e-6, 2.819e-4
0.820, -1.416e-6, 2.818e-4
0.825, -1.423e-6, 2.818e-4
0.830, -1.424e-6, 2.817e-4
0.835, -1.432e-6, 2.816e-4
0.840, -1.435e-6, 2.816e-4
0.845, -1.446e-6, 2.815e-4
0.850, -1.451e-6, 2.814e-4
0.855, -1.460e-6, 2.813e-4
0.860, -1.463e-6, 2.813e-4
0.865, -1.472e-6, 2.812e-4
0.870, -1.473e-6, 2.811e-4
0.875, -1.485e-6, 2.811e-4
0.880, -1.491e-6, 2.810e-4
0.885, -1.503e-6, 2.809e-4
0.890, -1.508e-6, 2.808e-4
0.895, -1.515e-6, 2.808e-4
0.900, -1.516e-6, 2.807e-4
0.905, -1.523e-6, 2.806e-4
0.910, -1.525e-6, 2.805e-4
0.915, -1.537e-6, 2.804e-4
0.920, -1.544e-6, 2.804e-4
0.925, -1.554e-6, 2.803e-4
0.930, -1.559e-6, 2.802e-4
0.935, -1.564e-6, 2.801e-4
0.940, -1.566e-6, 2.801e-4
0.945, -1.574e-6, 2.800e-4
0.950, -1.576e-6, 2.799e-4
0.955, -1.586e-6, 2.798e-4
0.960, -1.587e-6, 2.797e-4
0.965, -1.599e-6, 2.797e-4
0.970, -1.600e-6, 2.796e-4
0.975, -1.608e-6, 2.795e-4
0.980, -1.610e-6, 2.794e-4
0.985, -1.614e-6, 2.793e-4
0.990, -1.614e-6, 2.793e-4
0.995, -1.619e-6, 2.792e-4
1.000, -1.619e-6, 2.791e-4
1.005, -1.625e-6, 2.790e-4
1.010, -1.626e-6, 2.789e-4
1.015, -1.633e-6, 2.789e-4
1.020, -1.635e-6, 2.788e-4
1.025, -1.643e-6, 2.787e-4
1.030, -1.644e-6, 2.786e-4
1.035, -1.650e-6, 2.785e-4
1.040, -1.650e-6, 2.784e-4
1.045, -1.657e-6, 2.784e-4
1.050, -1.658e-6, 2.783e-4
1.055, -1.662e-6, 2.782e-4
1.060, -1.662e-6, 2.781e-4
1.065, -1.666e-6, 2.780e-4
1.070, -1.667e-6, 2.779e-4
1.075, -1.671e-6, 2.779e-4
1.080, -1.673e-6, 2.778e-4
1.085, -1.679e-6, 2.777e-4
1.090, -1.682e-6, 2.776e-4
1.095, -1.690e-6, 2.775e-4
1.100, -1.696e-6, 2.774e-4
1.105, -1.702e-6, 2.774e-4
1.110, -1.708e-6, 2.773e-4
1.115, -1.716e-6, 2.772e-4
1.120, -1.723e-6, 2.771e-4
1.125, -1.741e-6, 2.770e-4
1.130, -1.749e-6, 2.769e-4
1.135, -1.760e-6, 2.768e-4
1.140, -1.763e-6, 2.767e-4
1.145, -1.780e-6, 2.767e-4
1.150, -1.509e-6, 2.766e-4

Segment 10:
1.145, -1.182e-6, 2.765e-4
1.140, -9.659e-7, 2.765e-4
1.135, -8.105e-7, 2.764e-4
1.130, -6.827e-7, 2.764e-4
1.125, -5.807e-7, 2.764e-4
1.120, -5.029e-7, 2.763e-4
1.115, -4.362e-7, 2.763e-4
1.110, -3.739e-7, 2.763e-4
1.105, -3.342e-7, 2.763e-4
1.100, -2.873e-7, 2.763e-4
1.095, -2.514e-7, 2.763e-4
1.090, -2.186e-7, 2.762e-4
1.085, -1.981e-7, 2.762e-4
1.080, -1.633e-7, 2.762e-4
1.075, -1.477e-7, 2.762e-4
1.070, -1.322e-7, 2.762e-4
1.065, -1.187e-7, 2.762e-4
1.060, -1.042e-7, 2.762e-4
1.055, -8.780e-8, 2.762e-4
1.050, -6.401e-8, 2.762e-4
1.045, -5.536e-8, 2.762e-4
1.040, -4.186e-8, 2.762e-4
1.035, -3.033e-8, 2.762e-4
1.030, -1.317e-8, 2.762e-4
1.025, -7.863e-9, 2.762e-4
1.020, -2.629e-9, 2.762e-4
1.015, -1.018e-9, 2.762e-4
1.010, 9.490e-9, 2.762e-4
1.005, 1.534e-8, 2.762e-4
1.000, 2.947e-8, 2.762e-4
0.995, 3.413e-8, 2.762e-4
0.990, 4.231e-8, 2.762e-4
0.985, 4.235e-8, 2.762e-4
0.980, 4.807e-8, 2.762e-4
0.975, 4.814e-8, 2.762e-4
0.970, 5.725e-8, 2.762e-4
0.965, 5.975e-8, 2.762e-4
0.960, 7.018e-8, 2.762e-4
0.955, 7.426e-8, 2.762e-4
0.950, 8.403e-8, 2.762e-4
0.945, 8.596e-8, 2.762e-4
0.940, 9.141e-8, 2.762e-4
0.935, 9.225e-8, 2.762e-4
0.930, 9.719e-8, 2.762e-4
0.925, 9.736e-8, 2.762e-4
0.920, 1.048e-7, 2.762e-4
0.915, 1.064e-7, 2.763e-4
0.910, 1.159e-7, 2.763e-4
0.905, 1.189e-7, 2.763e-4
0.900, 1.293e-7, 2.763e-4
0.895, 1.311e-7, 2.763e-4
0.890, 1.378e-7, 2.763e-4
0.885, 1.384e-7, 2.763e-4
0.880, 1.428e-7, 2.763e-4
0.875, 1.436e-7, 2.763e-4
0.870, 1.490e-7, 2.763e-4
0.865, 1.505e-7, 2.763e-4
0.860, 1.600e-7, 2.763e-4
0.855, 1.623e-7, 2.763e-4
0.850, 1.720e-7, 2.763e-4
0.845, 1.783e-7, 2.764e-4
0.840, 1.840e-7, 2.764e-4
0.835, 1.867e-7, 2.764e-4
0.830, 1.921e-7, 2.764e-4
0.825, 1.920e-7, 2.764e-4
0.820, 1.987e-7, 2.764e-4
0.815, 2.024e-7, 2.764e-4
0.810, 2.127e-7, 2.764e-4
0.805, 2.194e-7, 2.764e-4
0.800, 2.293e-7, 2.764e-4
0.795, 2.341e-7, 2.765e-4
0.790, 2.431e-7, 2.765e-4
0.785, 2.471e-7, 2.765e-4
0.780, 2.540e-7, 2.765e-4
0.775, 2.604e-7, 2.765e-4
0.770, 2.661e-7, 2.765e-4
0.765, 2.739e-7, 2.765e-4
0.760, 2.818e-7, 2.765e-4
0.755, 2.874e-7, 2.766e-4
0.750, 2.952e-7, 2.766e-4
0.745, 3.028e-7, 2.766e-4
0.740, 3.174e-7, 2.766e-4
0.735, 3.253e-7, 2.766e-4
0.730, 3.360e-7, 2.766e-4
0.725, 3.405e-7, 2.767e-4
0.720, 3.562e-7, 2.767e-4
0.715, 3.665e-7, 2.767e-4
0.710, 3.817e-7, 2.767e-4
0.705, 3.866e-7, 2.767e-4
0.700, 4.025e-7, 2.768e-4
0.695, 4.157e-7, 2.768e-4
0.690, 4.322e-7, 2.768e-4
0.685, 4.399e-7, 2.768e-4
0.680, 4.616e-7, 2.768e-4
0.675, 4.757e-7, 2.769e-4
0.670, 4.888e-7, 2.769e-4
0.665, 5.039e-7, 2.769e-4
0.660, 5.270e-7, 2.769e-4
0.655, 5.386e-7, 2.770e-4
0.650, 5.662e-7, 2.770e-4
0.645, 5.804e-7, 2.770e-4
0.640, 6.090e-7, 2.771e-4
0.635, 6.301e-7, 2.771e-4
0.630, 6.526e-7, 2.771e-4
0.625, 6.770e-7, 2.772e-4
0.620, 7.108e-7, 2.772e-4
0.615, 7.320e-7, 2.772e-4
0.610, 7.694e-7, 2.773e-4
0.605, 7.983e-7, 2.773e-4
0.600, 8.357e-7, 2.773e-4
0.595, 8.698e-7, 2.774e-4
0.590, 9.140e-7, 2.774e-4
0.585, 9.517e-7, 2.775e-4
0.580, 1.002e-6, 2.775e-4
0.575, 1.045e-6, 2.776e-4
0.570, 1.099e-6, 2.776e-4
0.565, 1.150e-6, 2.777e-4
0.560, 1.211e-6, 2.778e-4
0.555, 1.274e-6, 2.778e-4
0.550, 1.345e-6, 2.779e-4
0.545, 1.434e-6, 2.780e-4
0.540, 1.522e-6, 2.780e-4
0.535, 1.611e-6, 2.781e-4
0.530, 1.706e-6, 2.782e-4
0.525, 1.809e-6, 2.783e-4
0.520, 1.927e-6, 2.784e-4
0.515, 2.049e-6, 2.785e-4
0.510, 2.188e-6, 2.786e-4
0.505, 2.343e-6, 2.787e-4
0.500, 2.521e-6, 2.788e-4
0.495, 2.709e-6, 2.790e-4
0.490, 2.928e-6, 2.791e-4
0.485, 3.168e-6, 2.793e-4
0.480, 3.439e-6, 2.795e-4
0.475, 3.737e-6, 2.796e-4
0.470, 4.076e-6, 2.798e-4
0.465, 4.447e-6, 2.801e-4
0.460, 4.868e-6, 2.803e-4
0.455, 5.304e-6, 2.806e-4
0.450, 5.776e-6, 2.809e-4
0.445, 6.278e-6, 2.812e-4
0.440, 6.790e-6, 2.815e-4
0.435, 7.304e-6, 2.819e-4
0.430, 7.841e-6, 2.823e-4
0.425, 8.332e-6, 2.827e-4
0.420, 8.799e-6, 2.831e-4
0.415, 9.219e-6, 2.836e-4
0.410, 9.585e-6, 2.841e-4
0.405, 9.892e-6, 2.846e-4
0.400, 1.015e-5, 2.851e-4
0.395, 1.033e-5, 2.856e-4
0.390, 1.046e-5, 2.861e-4
0.385, 1.051e-5, 2.866e-4
0.380, 1.051e-5, 2.872e-4
0.375, 1.046e-5, 2.877e-4
0.370, 1.036e-5, 2.882e-4
0.365, 1.023e-5, 2.887e-4
0.360, 1.008e-5, 2.892e-4
0.355, 9.901e-6, 2.897e-4
0.350, 9.713e-6, 2.902e-4
0.345, 9.510e-6, 2.907e-4
0.340, 9.307e-6, 2.911e-4
0.335, 9.096e-6, 2.916e-4
0.330, 8.895e-6, 2.920e-4
0.325, 8.697e-6, 2.925e-4
0.320, 8.506e-6, 2.929e-4
0.315, 8.319e-6, 2.933e-4
0.310, 8.149e-6, 2.937e-4
0.305, 7.972e-6, 2.941e-4
0.300, 7.815e-6, 2.945e-4
0.295, 7.646e-6, 2.949e-4
0.290, 7.494e-6, 2.953e-4
0.285, 7.346e-6, 2.956e-4
0.280, 7.219e-6, 2.960e-4
0.275, 7.092e-6, 2.964e-4
0.270, 6.973e-6, 2.967e-4
0.265, 6.855e-6, 2.970e-4
0.260, 6.746e-6, 2.974e-4
0.255, 6.641e-6, 2.977e-4
0.250, 6.541e-6, 2.980e-4
0.245, 6.447e-6, 2.984e-4
0.240, 6.358e-6, 2.987e-4
0.235, 6.268e-6, 2.990e-4
0.230, 6.190e-6, 2.993e-4
0.225, 6.104e-6, 2.996e-4
0.220, 6.022e-6, 2.999e-4
0.215, 5.947e-6, 3.002e-4
0.210, 5.880e-6, 3.005e-4
0.205, 5.812e-6, 3.008e-4
0.200, 5.754e-6, 3.011e-4
0.195, 5.688e-6, 3.014e-4
0.190, 5.633e-6, 3.017e-4
0.185, 5.575e-6, 3.019e-4
0.180, 5.529e-6, 3.022e-4
0.175, 5.474e-6, 3.025e-4
0.170, 5.430e-6, 3.028e-4
0.165, 5.379e-6, 3.030e-4
0.160, 5.339e-6, 3.033e-4
0.155, 5.295e-6, 3.036e-4
0.150, 5.261e-6, 3.038e-4
0.145, 5.221e-6, 3.041e-4
0.140, 5.185e-6, 3.043e-4
0.135, 5.147e-6, 3.046e-4
0.130, 5.119e-6, 3.048e-4
0.125, 5.080e-6, 3.051e-4
0.120, 5.053e-6, 3.054e-4
0.115, 5.024e-6, 3.056e-4
0.110, 4.994e-6, 3.059e-4
0.105, 4.971e-6, 3.061e-4
0.100, 4.941e-6, 3.064e-4
0.095, 4.917e-6, 3.066e-4
0.090, 4.893e-6, 3.068e-4
0.085, 4.872e-6, 3.071e-4
0.080, 4.849e-6, 3.073e-4
0.075, 4.829e-6, 3.076e-4
0.070, 4.810e-6, 3.078e-4
0.065, 4.788e-6, 3.081e-4
0.060, 4.780e-6, 3.083e-4
0.055, 4.761e-6, 3.085e-4
0.050, 4.749e-6, 3.088e-4
0.045, 4.732e-6, 3.090e-4
0.040, 4.725e-6, 3.092e-4
0.035, 4.712e-6, 3.095e-4
0.030, 4.708e-6, 3.097e-4
0.025, 4.700e-6, 3.099e-4
0.020, 4.701e-6, 3.102e-4
0.015, 4.698e-6, 3.104e-4
0.010, 4.703e-6, 3.106e-4
0.005, 4.706e-6, 3.109e-4
0.000, 4.714e-6, 3.111e-4
-0.005, 4.729e-6, 3.114e-4
-0.010, 4.750e-6, 3.116e-4
-0.015, 4.768e-6, 3.118e-4
-0.020, 4.802e-6, 3.121e-4
-0.025, 4.835e-6, 3.123e-4
-0.030, 4.882e-6, 3.126e-4
-0.035, 4.927e-6, 3.128e-4
-0.040, 4.985e-6, 3.131e-4
-0.045, 5.039e-6, 3.133e-4
-0.050, 5.101e-6, 3.136e-4
-0.055, 5.168e-6, 3.138e-4
-0.060, 5.227e-6, 3.141e-4
-0.065, 5.281e-6, 3.143e-4
-0.070, 5.340e-6, 3.146e-4
-0.075, 5.399e-6, 3.149e-4
-0.080, 5.450e-6, 3.152e-4
-0.085, 5.495e-6, 3.154e-4
-0.090, 5.527e-6, 3.157e-4
-0.095, 5.552e-6, 3.160e-4
-0.100, 5.567e-6, 3.163e-4
-0.105, 5.558e-6, 3.165e-4
-0.110, 5.547e-6, 3.168e-4
-0.115, 5.521e-6, 3.171e-4
-0.120, 5.501e-6, 3.174e-4
-0.125, 5.477e-6, 3.176e-4
-0.130, 5.461e-6, 3.179e-4
-0.135, 5.450e-6, 3.182e-4
-0.140, 5.451e-6, 3.185e-4
-0.145, 5.466e-6, 3.187e-4
-0.150, 5.491e-6, 3.190e-4
-0.155, 5.530e-6, 3.193e-4
-0.160, 5.586e-6, 3.196e-4
-0.165, 5.641e-6, 3.198e-4
-0.170, 5.719e-6, 3.201e-4
-0.175, 5.808e-6, 3.204e-4
-0.180, 5.904e-6, 3.207e-4
-0.185, 6.009e-6, 3.210e-4
-0.190, 6.111e-6, 3.213e-4
-0.195, 6.213e-6, 3.216e-4
-0.200, 6.315e-6, 3.219e-4
-0.205, 6.405e-6, 3.223e-4
-0.210, 6.493e-6, 3.226e-4
-0.215, 6.552e-6, 3.229e-4
-0.220, 6.622e-6, 3.233e-4
-0.225, 6.684e-6, 3.236e-4
-0.230, 6.707e-6, 3.239e-4
-0.235, 6.718e-6, 3.243e-4
-0.240, 6.689e-6, 3.246e-4
-0.245, 6.659e-6, 3.249e-4
-0.250, 6.622e-6, 3.253e-4
-0.255, 6.548e-6, 3.256e-4
-0.260, 6.479e-6, 3.259e-4
-0.265, 6.416e-6, 3.262e-4
-0.270, 6.361e-6, 3.265e-4
-0.275, 6.334e-6, 3.269e-4
-0.280, 4.289e-6, 3.271e-4
